0001010111111100
0000000101101001
0000000101111101
0000110100110110
1111101010111100
0000001001101100
1111110011111100
1111001111100100
0000110010101000
0000100010110010
1110110010101100
0000001110001000
1111110001110010
1111101100110011
0000010101111011
0001001001010101
1110001011101011
0000001010100101
0000000100110001
1111010100111011
1111001001110100
1111010011101000
1111100111010111
1110101011100110
0000011010010010
1111110011000011
1101111001011101
1110110000111011
0000110101010111
0000001010111011
1110100001111011
1111110101001001
0001001011110101
0000010101000100
0001010110010010
0000001100101101
1110001111100010
0000000011110110
1111010100011111
1111001010001010
0000001010011000
1110101011101001
1111111100011100
0000101110001011
0000000110010010
0001000000010101
0000101010010011
0000011011100110
0001111101010101
0000110110000011
1111011011001101
1111001100010101
0000010101100001
0001011100101100
0000110000101111
1110010001110011
1111011000101011
1110110001011110
0001010110000100
0000100101010101
0000001001001011
1111010100011100
0001010001010101
1111011100110111
1111110100001110
0001001001100110
0000010010010010
1110110001000101
0000000000010111
0000000001011100
1110101110110110
1111100001001101
0001000010010101
0000110110001111
1111000110010010
1111001001101010
0000111000111001
0001111111100000
0001100101010100
1111001101111111
0000000001110110
1111000001111000
1111000100011000
1110010101010111
1111010001110010
0000001011110110
0000111011111010
0001100010000101
0000010101110101
1111101000010011
1111101000110101
0000001111010010
0001011110111011
1111101001001111
0000100001010110
1111100011000110
1110100010001101
0000010100011101
1111011111011110
0000110110001110
1110110111100001
1110111000101110
0000101001000001
0000000000101010
0000000111101001
0000010001000111
1111101101100001
1111011111111011
1111110101110101
1110100101001111
1110110100100110
1111001100101011
1111100101000001
0000011100011101
1111001011001001
1111111101011001
0000111110101111
1110011101001110
1110111110101010
0000111110110101
1111010010111001
1111100100011111
1111010110010011
1110111000101101
0000001000110010
1111000011101100
0001001011011001
1110100101000000
1110111100000101
0000011000100111
1111011001001011
1111100101010000
0000100111010100
0000101101010110
1110101110011011
0000011100001011
0000101100000111
1110110010101101
1111011101110011
1110111000101000
1111010011101100
0000010000011101
1110100000100000
1110110110001011
0010000001010011
1111100010011000
0000011001010111
0000111011000110
1110101101110010
1111100000000111
1111001101000101
0001001101000100
0000101111100100
0000100111011001
0000011110100011
1110110110111001
0000111011100000
0000100001111110
1111101010011000
1111101010011010
0000011000010101
1110110000111000
0000011011011101
1110001101101010
0000011111001001
1111111101100100
1110110100111010
1111010100111110
1111111100110100
1111111101010101
0001010000011011
0001011110011110
0000000111111010
0001010101101100
0000001000110010
1111101001101001
0000111110011000
1101000111101000
0000100100000011
1111100010111001
1110110110110100
0000000011010001
1111110101110011
0000010001011000
0000111111011010
0000000011100010
0000001010010110
1110100110101111
0001010100111011
1110110111101010
0000000011010010
1110111011011110
0001100110110111
1111100101001000
1111001010100010
0000100110111000
1101110111000101
0000001001111110
0000001100010011
1111000100011000
1110111101111111
1111101110111100
0000001010011110
1110100010000100
1111011000000111
1111011110011100
1110111100101110
0000101000011010
1111100111111101
1111000001110000
1111010000100000
0001000010110011
0001000011111001
0000101100000011
0000111101101100
0000011110011000
0001011111010001
1110100111000101
1111100101110100
1111011010000111
1110111100111100
1111101111111100
0001100001100110
0001010101010011
0000001000100001
0000110010110010
0010001101001101
0001010101000110
1111100011101001
1110100000000100
1111000110001001
0000110001101100
1111001001101011
0000110110101011
1101010011110111
0001000000110000
0001010010000111
1111011011111001
0000011000110111
1111010011101000
0000100000011000
0010100000011001
0000100001000110
1111101001000010
0000011001010001
1111010111110101
1101110101000000
0001010101100000
1111100000110001
1111100000101011
1111000011000000
0000111100111101
1110011011010001
0000101000000101
1111111110111001
1111110111111110
0001001110001000
1101011000100110
0000011000100110
0000011011110110
1111010100001011
0000000101011011
0000100101001011
1111011000111110
0001010110001001
0000101110001111
1111101001110001
1111110010011000
1111111111000101
1111010110100110
0000111010111110
0000111010110011
0000000001101010
1110100001001111
1101001101010100
0000000011000110
1111010100101000
1110001100001000
1110110101011001
0000001110011100
0001001100001110
0000000011010101
1111111110011010
1111000001001000
0000010111110100
0000011111010110
1111100011011000
0010000101010100
0001000010011000
1111111101100100
1101100101011110
0000111011111110
1111001011111110
1111001100011011
1110101000101101
0000100011011100
0000011100011101
0000101000000111
1111001011100000
0001000011111010
0000111110101000
1111010001100011
1111000001011101
0000110100010000
0001011010111110
0000000000011111
1111101001011111
1110101010110100
1111010110001100
0000001000100110
0000000000100010
1111011010110011
1111011101100011
0000100010111001
1111000011000000
1111110110001101
0000001000101011
0001001101110101
0000100111010001
0000101011000001
1111111010001110
1111001100100111
1110111010000111
1111101011010011
1111111111001001
1111111010110111
1110110101010101
1111111100101111
1110101001010110
0000010101110010
0001010001110011
1110101100011100
0000101011001110
1100110010101101
1111111011100011
0001101001111011
0000111000100110
0010001011111000
1111011000011111
1101011010110011
0001000010000000
1111111100011100
1111101001011001
0000010010100010
0000100110100000
1111110000101001
0000001110111111
1111111001101000
0000110011000101
0001001001110110
0010001101011100
1110011110001010
0000110010011001
0000000010000000
0001010100010010
0001001001100101
0001000111100110
0000010101011011
0000111111111010
1110111110000111
1111101110111000
0001001011001101
0010010000011101
1111100110001000
0000011111110101
1110111001110111
0001001110101000
0000011100100010
0000110110001001
0000101111110011
0000100101000001
0000110100100011
1111010100011001
0001111110100110
1101011100010101
0000010011110001
1111010110100000
1111000101111101
0001000011011111
0000110011000000
1110011110101001
0000111011110001
0000101110110101
1110100010010111
1110001101100100
0001001111100001
0000010000101100
1110111111100101
1111111011010101
1111110110110001
0001001010000100
0001000011000001
0000101111010111
0001101001101011
1111110010000110
0000010001100000
0000100010101001
0000001010010101
1110111011110100
0001101110110100
0000000011110111
0010001011111111
0000101010111001
1111110101001111
1101111010010110
0000111011011110
1111110111101101
1111000010010010
1110111101110100
0000010000010101
1111000101000111
1101110001001000
1110110111010001
0001000110010011
1111101000011011
0000110011110000
0001000010001101
0000000010100000
1111111101011001
0000000100011000
0000001001110100
1111000011111100
1111110110010010
0001100011110101
0000010111111010
0000100000111011
0000000111010001
1111110100000011
0000001110101001
1111000101000100
0010101100011001
1110101000010110
1111001110100110
0001100100011101
0001000110101111
0000010011100111
0000011010101001
1111011110010101
0000111011010010
1111100101011110
1110010011001000
1110101101110100
0000110110100110
0000101100011011
1111001101111100
0000000011000010
1110011000100010
1110101011001100
1101010011110100
0000010001100101
1110101000101000
1111010100001010
1111110100100010
0000011111010001
1111011010000111
0001100010100010
1111100101111000
0001000000100000
0000110000111000
1111000011101000
1101111100101111
1111101010110100
1110001000110100
0000101110011111
1111000111100011
0000101111100011
1110001011101000
1111010101110011
0001110100101011
1111001011101010
0000000001100010
1110011110011000
1111001001011010
1111101001011010
0000010000000000
1111001111001000
1110000001011110
0000101100110001
0000011101110001
1111100110011010
0000010100000110
1110100100111001
0001011101000101
1111111110110000
0000100101101001
1111101001010100
0000011010110000
1111110011111011
1111011001011010
0001101110111111
1111111101101100
0000011011110110
0000111100010010
1111101101000000
0001011110011000
0001011010100011
0001000001000010
1111111100101100
1111011001000111
0001001110010001
1111000000000101
0001000011111000
0000100001001100
1111010001101000
0000011111011111
0000100111110001
0000101001101111
0000000000000110
1110111101100010
1111101110000000
0000111010110100
0000001010010110
0001110100001011
0001000101111010
1110110010000110
0000000110110110
0000011001110010
1111111101101101
1111101011100101
0000010000011101
1111000000111110
0000110011100110
1111110011001111
1111001111100100
1111111100001100
0000111110111111
0000010010001001
0000001000101011
1110101000001110
1111011111000000
1110101011101001
0001001110110110
1110110100111100
1111101011001001
0000011010011010
1111111100001110
1110011111110110
0000100011111010
1111110010101100
1111010110100110
0000000001001010
1110000010000101
0000010001010101
1111001000111001
0000001110110001
0000110000100101
0000000010000111
1111101101010001
0000001011001101
0000100110011101
1111010110001100
1101010001010000
0000111011101110
1111111101110101
1111100001101110
0001111011001001
1100111100100101
1110110001000111
0000100111010101
0000001010000011
0000001111001111
1110111101101001
0000000010100100
1111101001101101
1111111010000101
1111011001011101
0000110110110100
0000011011001001
1111101110001110
0000100101011001
0001000101111111
1110110000111110
0001010101011111
1110010001001011
0001001111101001
0000000011011010
1110011011001001
0000011011010111
0000000100011110
0001011011010101
0000101111111011
0000001000011000
1111011111110100
1110110111100010
0000000000110011
1110111110110011
0000110010001000
0000100001100001
1111011111111111
1111011110011100
1111111011101000
1110100111111111
0000110100000111
0000010110010100
1111101001111111
1111001001011011
1111011100101110
1111001000000101
0000011100111000
0000110111111110
0001001000011001
1111001001011011
1110110110010011
1111111001110111
1110101010111000
0001011100100010
1111110000101011
0001001100001110
0010001000100000
0001001000100011
1110111001111110
1110100111011100
0000011000111011
0000011001100111
1110011111000110
0001000011011101
0000110111001010
0000010000011010
0001001101000101
0001100100111100
1111100011000101
0000110001101001
1111010011100010
0000111011101101
1110111110111000
1111101101010010
1111110110011101
1110001001111001
1111001000110111
0000010001111101
1111110100011011
0001010100010100
1111001111000011
0000001000100010
0000101111001010
0001010100101100
0000000001101000
1111010010111011
1110101110110001
1101100001001001
1111101001001010
0000110011000110
0001010001100111
0001011010101101
0000110101001110
1110100111000111
1111011111010101
1111010100110111
0001110011011010
1111010011000010
1111111101100100
1111101011111110
1111011010100100
0000111000110001
1111110000011110
1110110100111110
0000111010000010
0001111100100010
0000100110011001
1111000001011100
1110101101101110
0001001000001100
0001010110011100
0000110010111011
1111010001010110
1110110111110101
0001001101000111
1111100110101001
1111001010011111
0001011010100010
1111001111100101
1111110010111010
0001001011111111
1111111110111100
1111001111101011
0001010101010000
0000100000011101
0001000001101010
1110101110011111
0000100000101001
1110011010001101
0000000011000110
0001100010101111
1111100111110001
0000011001110000
1111111100000011
1111101010011011
1111101000000010
0010111001111011
1111001000111001
0000100011010100
1110100001010111
1110111000000010
1110110111001010
0010010100100111
0000001111100100
1110111100111011
0000010111011100
1110111100101000
0000000100000010
0000101010010001
0000100111101100
1111001001000011
0000110010111000
0001001101001000
1111100100001010
1111011001110001
1111010011100111
1111011101001100
0000101011110000
0001001000100000
0001011110000010
1111111001000100
0000101101100000
0000110000000101
1111010011110111
1111111100100100
1111101001001111
1111100000100001
1111011110101010
0001001000110111
1111011111110110
0000010000010111
1111001011111010
0000110111011110
1111101100110100
1111010100011111
1110110001011101
0000011101000000
0000001000100100
0000100111000101
0010010001101111
0000100000111000
1101100010111101
1111010111000000
1110101001011110
1111100100011100
0000001111010110
1110011110010111
0000000101100100
0000000101101010
0010110001010111
0000010001001011
0001010101111111
0000110001010101
0000000100101110
0000110001100001
1111111100111100
1111110100101111
0001010011110000
1111000101001100
0000010000111000
1110011010110110
0000110000101100
0000110010011101
0000010011111000
1111010011000100
0000111110011000
0000000011100011
0001110101011011
1111000011111110
0001111001100011
1111111000110101
0000000000101110
1111101101001001
0001000010010110
1101110101100010
0000001010001100
1110110111110111
0000001000000010
1110001001101111
0001010100101100
0000100111101111
0010111101000001
0001000110101100
0000111010011110
0000111001001100
1111111100000101
1110110110110001
0010001100010111
1110111001011000
0000111010001110
0010101011010100
1111000000100000
0000100000100101
1111010011110111
1111100011101000
1111110011101101
1111011010111011
1111111000111010
0000001011110111
1111111010000011
1111110110110110
1111100010001111
1111101110001100
0000010000101010
0000111010010001
0000100010010001
1111111110011011
0000010010100001
1111100100001101
0000000101010001
1111010000100111
0010000111010100
0000011010010010
1111010110100010
0010001010111101
0000000110011101
1111111111001111
1111001000101101
1111101000111010
0001100001001011
0000111101100010
1111110101100101
0001100111100101
0000010100111000
1111111010001000
0000101000001100
1111001011100000
1111100010001011
0001101011011111
0000010001011110
0000011101001101
1111101011110010
1111000011101101
1110110100011101
0001000111111011
0000010100000111
0000111111011110
0001011110110110
1111000110010011
0000010101110100
1111101011101010
0000010000111110
0000011011000111
1111100110110010
1111111101111000
1111111000001001
1110101100110101
0000010101110001
1110100010010001
0010000010101110
0000010110001110
0000001000101011
0000010111101100
0001100111010110
1111001111110111
0000001111001011
1111111011101100
0000000010010010
1110101000100000
1111011011111000
1111010111100000
1111001000111101
0000010010001001
0000110011110111
1111010000110001
0001010101100100
1111001111101110
0001000100101111
0001100110001001
1111101100000110
1111011110111101
0001100111100001
1111010111111001
1100110100111110
1110110001111011
1110001101101101
1111100011010010
0000001110110010
1111011011101111
1110101000110110
0000000001101001
0000000111010100
0001000010101001
0001001010100000
0000000111111011
0001100110010010
0000100001010111
1110000111000010
0000011010001011
0000111001000110
0000110101100001
0001001010100111
0000100011000101
0000010010110001
1111000101100010
0000111001110010
0000000100010101
0010000110010110
0000000001111110
0001000001111110
1111101001111000
1111011110011011
0001101010001001
1111011101100110
0001000111111100
0000010100011111
0000110111100001
0000001001000011
0000001110010000
1111010100010011
0000000101000010
0001010101111101
1110111011010011
1111101001111011
0000111110110000
0000111101110111
1111110000101100
0000101111001001
1111010000110100
0001100010110011
0000110001001100
0000000100011100
1111100100011001
0010000001011000
0000110000011111
0000010110011011
1110100110100100
1111100010011011
0001010011101111
1110101110101011
1111111000110010
0000000000111100
1101111111011110
1110101001100110
0000110101001100
0000011100010110
0001001010010110
0000001110101100
0010001110010110
0000111111100010
0000001101110011
1111010011111000
0001000111011110
0000001000110110
0010100001101100
0000010001010101
1110111101101010
1111111110010100
0000001100010001
1110011110010010
0000100101111111
0000110101011000
1111001001000000
1101100111001110
0000001110010111
1110100001010001
1111100111000111
0001101110000111
1110111011000100
1110101101111001
1110111111001010
0010100101000100
0000010100100010
0000011000011100
0000100010000001
1110100111000001
0000000000011101
0000101001100011
0001101001100000
0001110011011011
1111001001111101
1111100001001110
0000010001011000
0001001001111001
0000101100100111
0000010001101001
0000110001010111
0001110111110001
1110011100101100
1111011110101001
0000101101010110
1111100001110001
0000010010111101
1111000111101100
1110110100100011
0000010000100101
1101110000010111
1110100101010110
1111011000010110
1111011010010100
1110101100100010
1111111000000001
1111011100110100
1111110001011101
1111100001001110
0010011010101011
1110111110000100
1110110110100100
1110001101110100
1111011000101000
1110111110010101
0010000001010111
1110110101011011
0000010010011011
1111001101001101
0000000100111000
1111101101000110
0000111011001100
0000101011011010
1111100001001101
1110001111101101
1111110110101010
0000010001110011
0000101101110110
1111101110011100
0000101101001111
0000011000100101
1111001010010011
1111000110000100
0000001100110011
0000101100010111
0000101110100010
1110101101001100
1110111010001100
0001001110011001
1110100111100001
0000000011111111
0000100100011010
1110001001000100
0001111001010100
1111000101111011
1111010010101101
1111100010111001
1110100000001011
1111110110001110
1111011000010010
0001000011100011
0001011011001110
1111000010110101
0000011011101110
0001011011111001
0000110101001000
1111111110000110
1111110111011100
0000001101101111
0000101100100010
0000001110000101
0000011010011010
0000101101001110
0001110000101010
0000000101101111
0000100001010111
0000101000001000
1111101000000111
0001010101011000
0001010111011110
1110010111011100
1110010001110010
0000111101101010
1110101110101101
1111100101001010
0010001100011000
0000110000110011
1110010011111000
1111110101001111
1111110000011100
0000001011010111
1111101110001001
1110001010101011
0000101111010101
1110110100000111
1111001110101100
1111101001001001
1101111101001100
0000010110111010
1110111000110010
1111101111100100
0000001100001011
1111010011001001
0000000110000010
1110111111000100
1111101101010000
1111101100001011
1110001001001011
1111110001001101
1110100101111111
1111101000011010
1111001101110111
0000001010101010
1111100011111001
0000101000110100
1110011010111111
1111010000111100
0000111110010011
0001000101011010
0001100110010001
1111101011100010
1111010110100100
1110111011011011
0000110100111110
1110100100010011
1111001111000101
1110110110001111
0010000001010011
1111100000011101
1110000011000100
1111111111100111
0000101101111000
1111001101010010
0000011000001110
0010100001010010
0000101000011001
0000001000011001
1111110111111101
1111011100010100
0000001001101000
0000100000101010
0000011011111010
0001101011010111
0001111011101101
1110111111110110
0000011011000011
0010000111001101
1111101000010011
1101010101101110
0001111011001010
0000101010100100
0000010110001100
0000000110101100
1101111110001001
1110110010110001
1111000010111100
0000110110010011
0001001001100101
0000111111000110
1111011011111000
1111011000101110
1110100111100000
1111011011100000
0001011111001110
0000010101101011
1111110110010010
0001001101011101
0000000010101101
1110011001111000
0000111100100100
1110101011101100
0001010011101100
0000110011000011
0010010010010001
1110101001110000
0010101111101011
1111001000000100
0001111011010000
0000111000010110
0001110111010010
1110100110110100
1111010111111010
1110111011111010
1111000101011110
1111001111010011
0000100001111000
0000101100101101
0000011111110111
1110010110110111
0000001111011011
1111010001011101
1110111111101111
1110101010101111
1111010011010000
1110110000010110
1110111010010100
0001011000000010
0001000110001111
1101111000001101
1111111011110011
1111110101010000
1111101100010110
0010010011000101
1111111100001100
0001000000010010
0001110001101000
0001001110111010
0000010000000111
0000100110011110
1111001000000001
0001010001010010
1111001111101111
1111110001111111
1111100101011000
0000001100001101
0000111110101111
1110001001000011
0000001000001011
1111000110010001
1110111101111000
0000001101111001
0010000001001001
0000110010110011
0001001100011010
0000101101100000
1110100001100000
0000011110001011
0000101100100100
0000000100011000
0000100111100111
1111110110001101
1110100100000111
1111010011011000
0001010100001110
1111110001001111
0000001010001101
0001110111111010
0000011011101000
0001000100111101
0000100101101111
1110101101010100
0010010001110101
0000101111101101
0001011110101001
0001010010001111
1110010101100100
1110111000011100
0001010011000001
0000010111010111
0000110100000011
1110010100010010
0000011001110011
1111101010101100
1110101001011011
0000110010011011
0001110011100000
0000001000000100
1111100000111101
0000101000100111
1111010101001101
1111011010111011
1110110110010001
0000111000110110
1111000100101100
0000001101111011
1111110011101111
1111011001010001
1110111000011001
0001011100100101
1111100000110000
1111001101010011
1110010001011010
0010000101010110
0001100001000111
1111111001100001
1111000101100110
0000010001000011
0000011000001011
0000000110101010
1111001110110110
0000001000000111
0000111001001111
0000100011111010
1110110010000101
1110000111100001
1111001111000000
1111110011010100
1111001101001100
0000111000010110
1111101010111100
0001001010110001
1110101011011010
1111101111101100
1111101010111101
0000100011110000
1111101011110111
0001010000001001
1111100001011111
1110111101001111
0000100100000001
1111011001110110
0000101001000011
1110010101111011
1111111010000000
0001000001011010
0001010001001001
0001000010110011
1110111011001010
1111110110111001
0000000000111101
0000011101001011
0000101011010110
0000100111101000
0010011100001111
1111000010100010
0000001011111100
1111111101101100
1101111010111101
0000010111101001
1111111010011111
1110110010000101
1111101000000110
1111111011010110
0000011100010001
0000010001010111
1111101100011010
0000110001101110
1110100110110010
1111101011000100
1110101100110011
1111000111000000
0000100101110000
1101100111001001
1111100101100110
0001001001010011
0000000000011011
0000010110100110
1111001000010001
1111110110111100
1110000001001100
1111011011010010
0000100001011011
1111100000100010
0001000100011100
0000000011010111
1110100001111110
1111101000100010
0000100010001010
0001011001010110
1110000001011011
0000000011000010
0000111110001101
1111001000011001
0000010011101011
1111110001110100
0000001110110001
1111010101011000
1111001101000000
1111111100011111
1111001110010100
1111000111000101
0001101011101011
0001000001001001
0010101110011010
0000100000101000
0000001001101100
0010010000111001
0000010100101000
0000000011111010
1111011010110100
1111010000001110
1111110100010111
1110111001111011
1110000100011000
1111100010100111
1111010110000100
0000001010001110
0000110110111100
1111111001000010
0000000111001110
0000010111101110
1111011000001101
0000010000000001
1111111011001001
0000110010101101
0001000000000111
0000011011000010
0001001101010000
1111000010111011
0000101000001110
1111101011101101
1111000010111000
0001011010111011
0000001111011101
0001101010010010
0000010111110001
0000000010011010
0000001101111110
0000101111110101
0001000001110001
0000001101011011
1111100010110001
1110111011111100
0000011000110010
1111011110010010
1110111001110000
1110111000000101
0000010000001101
1111011000011010
0000101111100011
1110100001110100
0001000010011011
1110111010001101
0010100100100011
0001010010001101
1111010000001010
1101100001010111
1110011010010100
1111000111010110
0001000010100110
1111011011110101
0000100100000010
0000010000101000
0000000111000111
1111001111011111
1111011011101110
0000010101110110
0000001000000111
0000001100100100
0000000000111010
1111110101011000
1111000110010100
0001101010011100
0000011011110001
0000010110100111
1101111010001100
0000100101001001
0000001100000010
1110101010110101
0000000001010100
1111110000000011
0001001001101111
1111111001101101
0000011101010011
1111000101101000
1111010101001010
0000010010110000
1111010000001111
1111000101010100
0000001011010011
0000000101100010
0000000110000111
1110010001011101
0001101010111110
1111110101001110
0000110010011001
1111010101111111
0000111111010101
0001011011011100
0001001101111100
1111100101101011
0000010100011110
1111111011111101
0000100101100011
1111111011010111
1111011001100111
0000100110110100
0000110011101111
0001111000011100
1111111101010100
0001011101000010
1111011011100001
0001101000111010
0001000010001111
1110101100100000
0001001110000100
1111101110100001
1110101110101011
1110111011001010
1111011100010111
0000010110100000
1111100110100000
0000011101110000
1111011110100111
0000111111111100
0001000100010011
0000011000010110
1111101100100111
0000101011000100
0001010100110001
0001010010000010
1101111010111101
1110111001001000
1111100011010111
1111100100110000
0000110000101110
0000010011001000
0000000011100100
1110100001001000
1111100010111010
0001101011001000
0000100010000111
1111000001111001
1111110000000010
0000001000110011
0001100001011110
1111010001111011
0000000001111100
1111111101011111
0000101111011100
1110100001110110
0000010110101001
0000010100110001
1111001110010011
1111101100001001
1110101010110010
0001100101110001
0001000110101001
1111001001010001
1110111100110110
1111100111110000
0000001001001011
1110011100000111
0000000101111111
0000001000001000
1111101000111101
0001100000111110
1110111111111000
0001001111001100
0000011010001111
1110001000010110
0000010010100011
0001010001011011
0000101000111100
1111000101110100
1111111000111101
0000111010111000
0000010110000000
1111001000001010
1111001111001100
0000100010010000
0001101110000011
0010000011000110
0000101100010100
1111110010001001
1101110010011110
1110110011000001
1110111101000000
0010000101010100
0001011011111111
1110001100000111
1111110000000010
0001001100111100
1111001101000110
0000010100000111
0000111110010101
1111000001110110
0000111001010001
1111010011010100
1110101101010010
0000100000011110
1101111000110101
0000110101111001
0000010100000000
0001001111000101
0001011011001111
0000101010111110
0000100100000011
0000001000010000
1111011100010101
1111011010100001
0001000000001011
0000110100001001
1111011110000001
0001010110101100
1111000101000010
0010011010111001
0000010110011010
1111001000101110
1110101101110011
1110110101010010
0001000010010101
0000001110101010
0001001010011111
0001010111000010
1111101000000000
1110110001001011
0000110100000000
1111011100001000
0000010101010011
1111001001111011
1110111001001101
0010011010010010
1101100110001011
0000001000010000
1111010110100011
1111101100101101
0001111110111110
0000000100001100
1111011010101100
0001000001110001
0001011000001000
0000010001111100
0000111111010010
1111011001101000
0000001000010100
0000101011000111
1110000110000100
0001011001011001
1111110100111110
0000110111110010
1111000110101001
1111101011101110
1111000011011000
0001000001100100
0000111000010100
0000010001011011
1101101001010111
0000000000001101
1111100100011101
1110100001011101
0000110000110110
0000010100001110
1110101000100010
0001010010000100
0001011010010010
1111111100110010
0000010111000111
0000101010101011
1111010000100001
0000011010011101
0000010010010010
0000001010110010
1111100001100000
0000000100111010
1110100010101001
0000011001000000
1110101110001100
1110111010000111
1110101000000001
0001011001000000
1111010111110011
1110100111101011
0000001010000001
0000011101101001
0000010111010001
1111100000111000
0000101000011111
0001110001001111
1111101001010001
0000000100111000
1110110100001011
1110110101001100
1111000011101011
0000011100010001
1110110000000110
0001011101011000
0000001010011000
0010001011000111
0001011111110011
1111000010010001
1111111100011010
0000011010000101
0000110100111000
0000011101010000
1111110101111100
0000101101100000
0001000010010100
1111110001111011
0001001101110100
0000001100101001
0000001010101000
1111110011111000
0000101001010011
0000000011001010
1111111011110000
1111111000001111
0000010110001100
1111111000110011
0001011000001011
0000100010101000
1111011111111100
1111100011011011
1110011010111110
1110101100100001
0000001001011000
1111110011110001
0000000000111010
1111101011110011
0001011101011011
1111001000100111
1111100110011001
1111100001100001
1111001101000110
1111000010000100
1110100110010011
0000100110101001
1111110110000101
1111110100001011
0000110011000110
1100111010011010
1110110100001000
1111001010101110
0000110000110000
0000111110010011
1111100100000011
1111101011101000
1111101101110000
0001001000000001
1111000010010110
1111111010011100
0000111000010000
1111111011001010
1111100110110100
1111111101101011
1110111010000101
0001100001000100
1110110111111001
0001000100110111
1111101011011011
1111110001001000
1111101111101110
1111001000000111
1110011010000000
0000010100000100
1111011100100110
1110001101011010
1111010100001100
1111111010110100
0001000000100111
0001001001000110
0000000001110010
0001111111001100
0001110001010101
1111011110000100
0000010110101101
1111100111011100
1111101000010001
0000001011101001
0000111001000111
0000010001100001
0001011000110010
1111011010100110
0000011000110001
0000100110111000
0000000011001110
0000010111010111
1111000000010100
1111010100011110
1111001101100001
0000011010100111
1111100000100000
0000100110000001
0000000110100000
1111110011011110
1111011001000011
1111000111000100
0000010010110000
0000100011001001
1101000001100011
0000110001010101
1111001001001101
1111011011000110
0000010110101010
0010001101011010
1110111100110111
0000000111000100
1110110111111000
0000111111110001
1110101000000101
0000111000111000
1111011110010100
1110101011000111
1110111100000001
1101100100011000
0000010100101101
0000000000000000
0000000001100011
1110010100111000
1111010011111110
0000000101011001
0000100001101110
1111011111001100
1110101100010111
0000111011011010
1110100110100101
1111001101011011
1111010000111100
1111101110010110
0000110100001011
1111011100010111
0001011111000010
0000110110101110
0000110100100011
0000111001110100
0000011011100010
1110100100011111
1111010111011011
1111110101000010
1110101111110010
0000010100011010
0001101001000011
0000001010001100
1101100000011001
0001001000101000
1111110100010111
0000111100100001
1111100011110101
1111101010000101
1110101100101111
1110100000011011
1110101110010000
1111101000100011
1111010111101111
0000010110011011
0000010010110000
0001000011011011
0001000111001111
0000001100110011
1111100010110111
1111110100010111
1101100000010011
0000110100011101
0000000011001011
0000101100110111
1111000111111011
0001000011111001
0001010100101001
1111110101111111
0000000100100110
1111111110010100
1111111111111010
1111001010000001
1111110011101011
1110101001011100
1111111001111011
0000001001110011
1110111011001101
1110011011111010
0000011010100000
0001101010011101
0000001100110011
0001000001100000
1110100110000100
0010000100000110
1110011000101110
1111011011111001
1110111000001000
0000001011011101
0001010001010110
1110110011010101
0000111100111011
1111011001101101
1111111010010010
1101100000000001
0001011111101101
0000010010001110
1111111011001001
0000000101101101
1111011001000111
0001111010100110
0000001101011000
1111110000010010
1111011000001000
1110110100001010
1110110011110100
0000010110110101
0000101001111111
1111110101100100
1111011000000111
1111101110100100
0000011011101111
1101111101101010
1110111110011100
0000010001100010
0000100101000001
1111011001001111
1111101101011100
1111000101110001
1110110110110111
1111100000101110
0001000111100110
0000111100000111
0001011000110001
1111111000010101
1111011011011111
1111011000011000
1111011100000001
0001101110000101
0001011101110100
0000000010100001
1111010010101111
1111011110111110
1111101110000101
0000100010110100
1111100000111010
1101100101100100
0000011101100111
1110111111000101
1111011111100011
0000110111111000
0000111001110100
1111111100011110
1111100101111011
1111000110101111
0000001011110111
0001001010011000
0000111110111010
1111010011100111
0001100001100101
0000101000011011
0000000110110000
1101111011100011
1111111001000010
0000010101101000
1110101110111010
1110110100100101
1111001110100111
1111010011111111
1110010100110000
0000000001101011
0000001111001100
1111010000000001
0000000001000011
1111110100101001
1111011111001111
1111110111001000
1111100100111100
1111110101001110
1111100001100111
0000000000100111
1111100110001001
1100110001001110
1110100010000111
0000001010100111
0000011110111010
1111111110110000
1111001000100001
0000001000010010
0000001111100011
1110101111110000
1111110111011110
0001110100110110
0001101010111101
1111101011000001
1111011101001101
1111000100001111
1111000000001000
0000100000010101
1111001010010100
1110111110011101
0000110111000000
1111011010000111
1110110101101111
1110010110100010
0000110010010010
1111000011110001
1111011101100011
0001010101000100
0000000101011011
0000111011001010
1110011111011100
0000001111011011
0000000110110000
0000000011011010
1111110001010111
0000111110111110
0000000110100100
0000001011011101
1101110011100101
0001111010101001
0000010101010011
1111111101101111
1111010011101001
0001000110010000
1110110110111011
1101110000001101
0001000011010111
0000111111111110
1111101011100101
0000001100011110
0000001100101110
1100101110111110
0000100101111010
0000110000111010
1111010000001000
0000010001000110
0000111101101011
0000110001010111
1111010010110101
1111100011101101
1111101001101100
1111100100011100
1111111100100000
0000001000100011
1111011010010100
1111101110001111
1111001011000010
0000101110010100
0001010111011111
0010001001110111
1111110110011111
0001110000011010
1110100100011011
1111110101010110
0000010011000110
0001100101010101
1111111111001011
1111010111011100
0000110100110011
0001101000111110
1111110101001010
1111111111011101
1111100000011110
0001111111011000
1111010010011100
1111110101101100
0010100000101110
0001010001110011
1111001010110101
0000010110110101
0000110110010001
1110101010000011
1111001010001011
1111001010011101
0001000101110000
1111010010101000
0000100011011010
1111100101110100
1111001000010001
1111000101001101
1111100100011111
1101111000010100
1111000100101000
1111101111001110
0000011001010001
1111111100111101
0001010110011100
1110111001010100
1111101110011011
1110100000001011
0000010011101101
1110001100110010
1111101101000110
0010011010101000
0000100010101101
0000001000001010
0000011011110001
0000110111111101
1110000001110011
0000001110110100
1110100101011001
0000000001101101
1111011111100111
1110111000001010
1110001111010001
1111000100101011
0001001110001001
0001101010111101
0000001101110101
0001000001110110
1111011001110011
1111101010111000
1111101000100001
0001001000000001
1111100011100001
0000010011100000
1111111000000111
1111110010110101
0000011011111001
1111010100101011
0000100010000110
1111001000111110
1111111101001101
0000001000100000
0000100000010101
1111100000100100
0001110000110000
1101110001010011
1111101001111111
1101111010111101
0010011111011100
0000110000010011
0000010101010111
1110110100101111
0000100010010011
1111111001000000
1111001000010101
1110110001010001
0010011011000111
0001100111010100
1111111001100001
1110100001101010
0000011011100010
1101100000010010
0000001111110100
1111100010011100
1111010000010100
1111110011011000
0000001001111101
1110100101011111
0000011101110100
0000111000111100
1110100001100110
1110111100001101
0000000110110110
0001110100101001
1110101101000000
0001111000100010
1111011100100100
0000100101011011
1111001111110001
1110001101100101
1110111000101100
1101100111101011
1111101110011000
0001010010010110
1111100010011001
0000101001110001
0001001101000010
1110111010011100
1111100001001100
1111010010100110
0000010000001001
1111100101101001
0001001010111101
1110011010101010
1111101100101000
0000000111110101
0000111001110111
0000001011110011
1111000101111111
0000010101101010
0010001011100101
0010000100001000
0000011101010101
0001111100011111
1111110001010000
0000110111101111
1110100011110100
0001100100011101
1110110001010010
0000010000100101
1110101111100011
1111101111001100
1111011010011101
0000101100101001
1110011001101001
1101011100000110
0000011010001000
0001011100101111
0000000011001011
0000110100100000
1110111001100111
0000110011101010
1111011110101010
1110110000101011
1110111010111010
0000100010111010
0000000011000010
0000010101011001
1110011110111011
1111011110101010
0000000100011100
0000111110000011
0001100101000100
0000101000000100
0000001000111001
1111011000100011
1111001001111010
0001001001001101
0010100001110001
1111110101101000
0000000011100000
0000010001111001
1111110000001100
1111100101000110
1111011011011110
0000110100010101
0000010010000000
0001011110111110
1111000111101000
1111110100110101
0001010000011111
0000111000000011
1111001001010111
1111001110111101
0000110101110110
0010001111001010
1101101101101011
0001001100110011
1111101101100110
0001011100011000
1111101010000011
0000110110000101
0000010001000000
1110110111011010
0000010101010010
0000010101011110
1111111010111100
0001101011010100
1111011011011000
0000010111100111
1110001111010011
1111111001000010
1111010001010001
0000000011001011
0001001010001111
0000001111111101
1111110101110110
0011001101011011
0000001110100101
0001101001101111
0001001111101001
1111100010110100
1111100110010001
1111101100110001
0000011110100100
1110110110111010
1110111011101111
0000100100000110
1110111011101010
1111101010010110
0000000100011000
1111001110101100
0001010110001100
0010001001110011
0000001110101110
0001000101001111
1111101101011111
1110111001110000
0000101100011100
0001010000010110
0000110111010111
0000000110001000
0000011111010100
1111000111000001
1110110110111101
0010101110111101
1111001010111101
0000110100110101
1110100100011110
1111011111011001
0001001010000010
0000011111010011
1111000011001000
0000011100011110
0001100001110001
0000000110011001
0001001100011111
0000010100001001
1110100100011110
1111100101001101
0010000001110100
1111000111110011
0001100110111011
0001001100100010
0000111100010010
1110110110011000
1111101000011100
1111010111001101
0000011110000001
0000011010011100
0000111110110111
0000111100010001
1110010000000111
0001110110001001
0001110010000100
0000101111000010
1110110011011001
0000100110101010
0000111010111111
0000101011011100
0001100111110100
0000011011011011
0000110110011110
0001010101011111
0000111010101101
1111001000100001
0001011001010101
0000101001000101
0001100010010010
0000111000110100
1111001100010010
0001011010111010
1111011001000101
1111001110001001
0000100110100001
0000000011101001
1110000000001001
0000000011110010
0000110010001010
1101101001100100
0000101101000010
0000011010111101
1110101100111100
0000011100100010
1111111001010000
1111111001001110
0000010000011000
0000000101111000
0000011100001010
1110111010001010
1111110110110010
1110010101010110
0000100000000000
0000111111100101
1111010111101001
0000010010010110
1111100010111101
1111010011001100
1110101110110000
1111110100000110
1110011111110110
1110010011011000
0001101011110011
0001101011010000
0000010000110001
0000000110111110
0000101110110011
1110111000011001
1111001111000011
1101101111001101
0001100110011111
0000010110000001
0000111100111101
0000001100110011
0000000110001110
1110100011011110
0001000111011010
0010001101111100
0000001110000110
1111100000101000
0000001101111101
0000101100001101
1111010100110001
1111100111101101
0000001111110001
0001100110001100
1110001000010100
1111010011011000
1110100011100100
1110111010100100
0010000000111010
1111111100011000
1111101110100001
1111101000110000
0000101100111001
1111100010101000
0001001110001111
0000011001001010
1111110000111110
1110101011011010
0000010001100011
1111100001100001
0000010010001111
0000100101010011
0000011111101000
0000000011011010
0000010010101111
1111111000100011
0000011010100011
0000001110010101
1111010011000011
1111100001011010
1111100000000000
0000111011101101
0000000001110111
0001010110110000
0000010010101111
1110101011011110
1111000110010111
0000001010000000
1111100100000000
0001010101101101
0000101110110011
1110111000010011
1111101001001101
1111010101100111
0000001101110111
0000000111010011
0000001110000100
1111010011010100
0000111100110110
1111000111000100
1111011001111001
0000001000000111
0000100101010101
1110100111101000
1111010111010100
0000011111110100
1101011111110011
0000110110100010
0000010011010000
0001001101101111
0000000010110100
1111011011101101
1111011100110000
0001001110011110
1100100001001110
0000000100000101
1111010111000100
0010101101110100
0000000100010011
1111111000100000
1101110100011100
0000011100100100
0000010000111100
0000001100011001
0001000000000100
0011101001001000
1110011110000001
0000100010011001
1110110110111010
0001010011110101
0001010101101111
1111110001000100
1110110111001101
0000101101011111
1111100000001110
0001110111111110
0000010110111100
1110011001000001
0000111110100101
1111110111100111
0000010100101111
0000010000110111
1101101110101001
1101011010101011
1101111010001100
0000010010010010
0000000110110011
1111100101100110
0000001111100110
1111001110100111
1110011001100000
1111010010110010
1111101100010111
1111111100011000
1110010110001110
1111100111111100
0000000001100100
0001001010000110
1111000100000111
0000101101101000
1110000011010100
0000000000110001
1111000101001100
1111010011111110
1111100000100001
1111001010100011
1111001001011111
0001011101011111
0000000111011000
1111111101110010
1111100010110100
1110111101100110
0000101100110111
0000101110101011
0000110110010011
1110000011001110
0001101100101001
1111010100011001
0000111000010010
0000000011011011
0000101110010110
1110001001001111
0000100011010011
0000110100100001
0001011110001111
0000110001100101
0001001011111100
0000011111101011
0000010110011110
1111000011001000
1110111001110011
0001010010110001
0000010001001111
1111001100010001
1111111101010001
1110010110101000
1111011011100000
0000110100100101
0000001110010000
0000001001101001
1110101000001000
1111111110101011
1110111110010010
1111001010100001
0000101101010000
1111101101000011
0000000100011000
0000110100110111
0000111100101000
0001010010010000
1111011100010111
1110010110010100
1111010101010010
0000001111010110
1111010111000011
0000001010001110
0000010000101000
1111100110101001
0000111110010011
1100111011010010
0001000011001100
0000001000111100
1110101101101010
0000101011110011
0001011001101011
0000111010001010
1111000010011001
1111111011111101
0000000010001110
0001000001101001
0001100101100000
0000001100010000
1111111010001101
0000001000011100
0000001111001011
0000000001101001
0000101001000011
0000111001001010
0001001110110110
1110111000001101
0000111010111000
1111001101101101
0001001111010100
0001010101100100
1111001011101011
0000101001101011
1111110000001110
1111111101101010
1111000110111111
0000100100010101
0000011110000110
1111111001110100
0000101100010001
1111011110100011
0000010000100101
1111100100000111
0001010011010100
1110101010010110
0000010101110100
0001011111010011
0000101000111000
0000111101011010
1110100101001000
1111011101111110
0010010001110011
1111101011010101
1111111101000001
0001100001111000
1110111110010001
0001101111101010
0001001100101100
0000101101100101
1111011101011011
0000010000000101
1111001001000100
0001101010110100
0001100101111000
1111011111000110
0000110011101000
0000011101010010
0001110100010110
1111010000010011
0000111010001100
1111001010110101
1111001110000001
1111011011100101
0001110000010001
1110000000101001
0000010111101101
1110101101010110
1110111100110110
1110010110110000
0000111000110010
1111100010111001
1111111101010111
1111100011111000
0000010001111111
0000111010000001
0000011000010001
1111001101000000
0000100000001111
0001101001010001
1111101010111000
1111010011100100
1111001111110001
1111000001100001
1111111010011100
1111100010011001
0000000011000011
0000000000110100
1111001101110010
1110110011010000
1111101111110111
1111011010001011
0000100010010010
1111101001010100
0000010000100101
1111011011000101
1111010011111101
0001000000110101
1110010011110001
0000001011011011
0000000000011000
0000100101011011
1111011111111101
1111000001101001
1111000100000001
0001001110011100
0001011000010100
1111110000110011
0001001011011100
1110001100010111
0000010001101100
0010100101110011
0001001110000001
0000111010110100
0000101000000111
0001101100001000
0001011011011001
0000100001111010
1101110011000100
0000000110110101
0000001001111100
0000101111000101
1111000111101100
1111010100010000
0001000011011101
1111101000011101
0000011010110011
1111111011010000
1110111100000101
0010000000101000
1110000100111111
1111100011010110
0010011111000010
1111000000000111
1101111111011000
0000101111011010
1111011111101111
0000101111111111
0000011100011111
1111110110000101
0001000010100110
0000010101001000
1111010110000101
0001001110111010
0000110001011100
0000111111100001
0001010110101101
0000100000001000
0000011101010110
1101011101111011
1110011010010001
1111011100111011
0001011011101011
0000001101100110
0000100110000011
1110111010001111
0000111000000011
0000000010001111
0000011010100010
0000110100100011
1111000111111011
0000000110100111
0000101010000100
1111110011001010
0000101000011011
0000101000010111
0000000000100111
1111001001001010
1110100000011000
1111011111111100
1111011010010000
0001011000011011
1110011110010010
0000001100001001
1101110110010000
1110011110101111
1110111101110110
1111100000110000
0000101010100010
0010010101111111
1110111001110111
1110101110101000
0000001110010101
0000010010110100
0000001101010000
1111110100010110
1111101011110000
1110010100001000
0000001101101100
0000111111101111
1111100011100110
0000011000001001
0000000100111001
1111101111100111
1111011001101011
1111011010011100
1110000001000010
1101000101000010
0001001010010101
1101111001111010
0001011010100110
1111011110110110
1110011111110100
1111111011110000
1111100000101001
1111101101000011
1111000111010101
0000000111110101
0010010001011010
1111011001000101
1111111110000111
1111111110101111
0000101101001001
0000101101100110
0000000110011011
0001000110011011
1111010011010001
1110001011111100
0001101001111111
1110001101111111
0000000011101001
1111001001111011
0000111010001101
0000110001001010
1111110111110001
1111101111011010
0000101001100110
1110101000010000
0000011001001001
1111110011111101
1110101011010110
0001100010000101
0000011001011101
0001011000110001
1110110010101100
1111101010010110
1111000110010110
1111000110101011
1101110011101110
0000101100110101
1111110001110101
0000000010010000
1110111000101110
1110110000001100
1111001011000011
1111100001000101
0001010011111111
0001101000010111
1111011011011000
1111001010100001
0000100001111101
0000111001101001
0011011010001101
1111100011000110
1110100111110001
0001000011100110
0000110011010001
1111000110011100
1111001000101101
1111010010011011
1110011011110011
0001001101101011
0001000000111001
1111111111111001
0001000101110000
0000011001011110
1111110100101010
1110011001110001
1101111000001010
0000111001011110
1111010110001001
1111110001001000
1111101111101010
0000011111110110
1111011001001101
0000100111101100
1110011110011100
0000010001110110
0000010000111010
0000110110110001
1111101010001111
1110111101011101
1111100010101100
1111011100011111
1111001000110101
0001010000110011
1111101101000100
0000010110010101
0001100110000011
0001111101010110
0000100100111001
1110100100000001
0000100001100000
0001011110110101
0000110111100011
1111011001101100
1111111001001101
1110010010111000
0000101011010100
0001100100110001
0000010111100110
1111010100011100
1111010010010111
0001101000100010
0001000000010100
0000101011010010
0000010101100111
1111101010001100
1110000001010101
0000011001100011
1111101110001100
1110110101001000
1110110000101000
1110101111000101
1110111110110000
1110100010100011
1111110100000101
0000101001000010
0000000011000111
1111001100100001
1111111110110110
0000110011111110
1111111011101011
0000100101010011
1111111111010000
0000010111110001
1110101000000100
0000010010101011
0001000101101011
1111100110011110
0010010000111111
0000111010100000
1101010111100100
0001010001101101
0000010001100000
0001010000001001
0000001101110001
1111100100000111
0000010100101110
0010001010001001
0000110011111111
0001011110000111
1111011100111111
0001001000010000
1101100000001001
0000010000111000
1111000000001001
1111101111010111
0000111001011010
0000011011110010
0001001001001010
1110101100101100
0000011001100010
0000100011110011
0000011000011101
1111010110001111
1111011110110101
0000110111010001
0000000011011101
0000101011000111
1111001001111000
0000011110001000
1101110100110101
0000101000110011
0001000110011010
1111101000111100
0000001000001110
1111001011101001
0000100111101101
1111010011111100
1110110110000001
0000001101010010
0000000100101011
1111000001001010
0000001010101101
1111111001110000
0000010101101100
1110101100001101
0000010001101101
0001011011101101
0000001111010010
0000010000001001
0001110110100000
1110001011111000
0000101011111001
1111110100001000
1111010001100110
1111001010001100
1110110010100011
1110111001000011
0000100111001000
1111001111110001
0000000010010011
1111001011010000
0000111001110100
1110001010011010
0001010011100100
0001001111010110
1111001000110111
0000100111001100
1111010100000011
1110100100011110
1111100001110110
1110110011110000
1111000111001010
1111000111110011
0000011100010011
1111101111011010
1111011100010010
0001100000001010
1110100000101100
1101110101010110
1110101000000101
1111111100011110
0000110100000101
1110001001001110
0000000100110000
0000100111010101
1111110110110110
1111101101111110
0000100000011111
0000001011001111
1111000101101111
1111010100010001
1111101110110100
0000101011110111
1111101111110001
1111001001011110
0000101101010100
0000011100101001
1111011101001010
1111101111100010
1111100010110001
1110100111001010
1110011011010110
1111110001001010
0001101010110110
0001010111000101
0000001101000010
0000111001001100
0001010001101100
1111001000100000
1110111111010100
0000010101110000
1111110100110110
0010011101111000
1111001010010001
0001000011110001
0000100100011011
1110110110000000
0000101001011011
0001111111000111
0000000010010100
1111100001011111
0000111001010100
0000100001111111
1110101100100010
1111000101111110
0000001100110010
1111101110010010
0000000111000010
0000001111111100
0000010100000110
1110111100000010
1110110010001000
0001011101000111
0000011001101010
1111101101111110
0000001010011011
1110011010011111
1111110011110001
1111100101011101
0000001011001101
1111001111100010
1111100000010010
1111011001111011
1100101110001111
0000001110001111
1111100011011110
1101111100000111
0000101101011101
1111001000100110
0000010001100010
1111001111000100
0000100011111111
0000011101111101
1101111111111101
0001000011000011
0010000011000010
1110111111110101
0001111100000011
1111100100111110
0001001001001101
1110111111010100
0001000100001111
0000001010001010
1110110011110101
0000000110000111
0001001110000111
0001100101001111
0000101001111110
0000000001010101
0000010111111101
0000100111010010
1111100101100000
1111111101111110
1111111001101010
0001000101110011
0000010111100111
1111101110110011
1111000100001110
1111100001110000
1111000101010110
0000100100010010
1111100001101101
1111000001010011
0000111110011011
1111101011011001
1111110001000011
1111110011000100
0001011001001001
0000001111000000
1111010000101000
1110111100001101
0000100001110100
0000010001010101
0001010100011000
1111111100000000
1111101000010001
1110111011111010
0000001011001111
0001001000010100
0001000111001001
1110110101011001
0000110111010010
0000110111111010
1110001111101100
0000011100000100
1111111010000111
1110001110111101
1110010000111100
1111011010001010
0000010101101000
1110100010101011
1110101111101010
0001110100001000
0001110101100000
0001000110001010
1101110010100001
0000000011011001
1111110000110000
0000010111100100
1111101111001111
1111100000100011
1111011010110110
0010011001001110
0000010100110000
0001101001101010
0010110110000000
1111110101111101
0000010100101010
0000100111010010
0001011001111001
0000000110001010
0000101110011010
1111000010001010
0000011111000001
0000111011001010
1111110000010100
1111010110101011
1111111001111001
0000000111011100
1110111010011111
1111000110111100
1111010011011011
0000011101001011
0000001100100001
0000110110001100
0010011010011100
0000101110100101
0000111000000011
0000001011111100
1110110010010001
0001001111110111
1111101001100010
0001111010111101
0001111111001100
0001001110100101
1111101100110000
1110110000110011
0000100001000101
0010001010111110
0000101001101001
1111111000101111
1111111110001010
1110001011111000
1111011110100011
0000000000011110
0000110001011011
0000011110011000
0000011100100110
1101011011111011
0000000110001111
1111010101010001
0000000101111010
0001011110011100
1110001101000000
0001011111000010
1110110001011010
1111001000101100
0010001111111000
0001100101011100
1111101011001010
0010001011111110
0000100101100111
0000000100100001
0000010000100100
0001001100011100
0000101000111011
1111101000111001
0000100000000011
0000000010010100
0001111011100110
1111001111101100
0001010110110001
1111101010001100
1111010010011010
1111101111100011
1110100001010000
0000001010001101
1110110110011111
0000010010000101
1111110100010111
1111001011011101
0000001101110110
0000110111110010
0000010001111011
0000010110101111
1111010111100010
1110100011011010
0000100101100110
0000110101101111
0000101011001001
0000010010000001
0000010110000010
1100111110111011
0000011001010100
1110010001111100
1111111111011001
0000011011101000
0001110111110001
0000000110000011
1110111001111100
1111110011000000
0000110011100011
0000000000011100
0000110001011010
1111011001101110
0000100111101100
1101111001001110
1111110000111000
0000011000101100
1111011111011100
1110110001010011
1111100111110101
1111100110000101
0001011010110011
0001000001010010
0000101111000100
0000111101000101
1110100001111101
0000001101010110
1101010010101010
1111101111011100
0001111110001101
1111101101001000
1111001001101100
1110010011101111
0000110001011110
1110000100001011
1111011110010000
1111000011001100
1111110110001011
0000011100010100
1110000111001001
0000101100111011
0001000100111111
1111011100010111
1111100111100101
0001001101011000
0000101111011010
0001000000111010
0000011000111111
1111010010111000
0000001101101111
1111111001001110
1111011000001111
1111010101100111
1111001010100010
1111110110111101
1111001011101000
0010001110000100
0000111000100000
0000110110011110
1111000100010110
1111011001010111
0001011101011000
0001110000101011
0000111111100011
0000000111001000
1111110100111111
0001010010001010
0000000011001110
0000101011111000
0010000011011111
0001000100011000
0001101111101011
0000111001000100
0001000111011110
1111011010010111
1111111100101100
0000101111010101
1110011011001000
0000110111000010
1111110100001011
1111110001001001
0000011100000111
0010000011001101
0000000001110000
0001100001000011
0000001010111101
0000101110011100
0000101110011100
0001110010000010
1111100111110100
1110110110101100
0000110010001011
0000110000101000
1110101010001000
1110111000011000
0000111010101001
1111101010001100
1110101011010010
1110011001100000
0000010010101110
1110001110010011
1111111011110110
1111011110110001
1111100111010111
0001001110001110
0001001011011000
1111000001110111
1101101010001101
1110101001000001
1111110010101101
0000111001000000
0000011101001000
1110101100101011
1110011111110110
0000110010011110
0000000110100100
0001001001000110
1111010111011001
0001001001001110
0000001101000100
0000010100000011
0000001111101011
1110100101001000
0000001011011100
0000111010110010
1111000111010001
0001001110010011
0001101000001110
1110100101101001
0001000101110010
0000110001101000
1111110110101110
0000111011010011
1111101110010010
0001101010101111
1110011101100101
0001011110100100
1111110100100010
1111101100110100
1111110100001111
1111111001110101
1111001111000011
1111101001101011
0000011011010111
1110000100000001
1111011011001000
0000000101100000
1111000010011101
0000011100111100
0000000111011100
1110111110111010
0000001001000001
1111001000101001
1111111111000100
1101010011110011
1111110001000101
0001001100110001
0000101110010100
1111101111110111
0001010101110011
1111000110000111
0000011111000000
1111011100000100
1110010100100001
1111000101000100
1111110110110011
1111111001010001
1110100111001010
1111000011000111
0001001111011101
1110011110000111
1111000001101101
0000000111111000
1110011111010001
1110001111011110
1111111110110110
1111011100111001
1111111101001000
0001001000110101
0000100111111000
1110011011000011
1101010011111000
1110101010101100
0001111001000000
0000010101111100
0000101010001001
0001100111101101
0000100000011110
0001100011010010
1110100111100110
0001001101001000
0000011100100010
1111111001010011
1111011011101010
1111100011000001
0000001011111110
1110111110001011
0000010000001101
0001010011001011
1111100010111111
0001111000000010
1111111110111000
0000000010101000
0001110111110111
1110010010110001
1111101011010000
0000100110001100
0000010110000011
1111101101111001
1110100000110111
1111011111001011
1110010010100001
1111100000000111
0000100010110000
1110101100100110
0001001001000111
0000011100101100
1111000001011100
0010011100110111
1111011000110100
0000011110110010
0000100110001001
1110110001110011
0000101111111001
0000000100000011
0000010011001110
1110011101001001
1111000111110000
0001000100000010
0000001010111001
0000101001100000
0000010110100101
1111100111111011
0001001010111011
0000110001110000
1110011010101101
0000100101000010
0000100101000011
0000100010101110
1111110111101011
0010100011111111
1111000011011010
1101111010101010
0000011111010110
1110001101101100
0000000101101110
0000001000001011
1111001011111001
0001001101100111
1110010111011010
0000100011000101
1111100100001100
1110111011001111
0000001011110101
0001110100001110
0001001011110001
1111001101111011
0000011001010011
0000111000100111
0001001000011110
0000010100010111
0000000000011000
1111011110000100
1111000011101111
1110010011001000
1111001111100110
1110010101111101
0000001000110011
0001000001101010
0000101000111100
0001110010111111
1111110111011101
0000100010101010
1111001000100101
0000111001011101
0001010001110010
1111011000001111
0010010001011111
1111010100110101
0000000100111111
0001010001010101
0001010110000110
0000011011111100
0000010101111001
0000110000000000
1111111001110001
0000010110110111
0000000100110001
0000000100111000
1110011000110001
0001010010010010
1110100100110010
1101110111001011
0001101011110011
1111010110001011
0001000010010000
0010110001000111
1111110101001010
0000011000011100
0000010101110100
0000001001000110
1110000001001001
0001001101010110
1111110100010011
1111010101000010
0000110110001011
1111011111110111
1111100100001011
1111100100001011
0000111110011110
1111110011110000
1111011111100101
0000000101001000
1111101000101110
0000110011100100
1111110100110001
0000110101000111
1111011011100101
1110011111000100
1111011011111000
1101110101000101
1111001001100001
0001101110011100
1111010010100111
0000001000110111
0000111001101111
1111101000111101
1111010011101101
1110111110111001
1111011100000001
0000010110100101
0000101011000010
1111101001001100
1110100100110100
0001000110111111
0000101000100001
1111010011110011
0000100010001001
1111111001011001
0001000101001011
1111101111100000
1111100001011100
1110101011001111
1111100101001000
1111110001011001
0000000100100101
0001000111000101
1111100100111111
0000110011010000
1111011110001100
0000010001001110
1110011000010010
0000011001011010
0000100010100110
0001010011111101
0001000111010011
0000011100000010
1110111000101101
0001000001111101
1111111110110011
1111111010001000
0000001111010111
0001111111001111
0001001110001111
0000001101111011
0000110110110001
0000000101010011
0000111011101111
0001110111011001
1111101001011110
0000110001001010
0000000000000000
0000011010110101
0010010110101100
0000011110011111
1111100000011010
1111111100110010
0000011011110000
1111101101110100
1111110101100111
1111111111010000
1111110001000101
1111001111101100
0000011111000010
1111111110111000
1111011111010101
0000000110011010
1111011110100011
0001011010000110
0000110001110100
0001101101110100
1110110101111011
1101101111001010
1110101001111111
1111110001011000
1110011111101001
1111011111001111
0000010110110110
0001000100010001
0000110101101000
1111100110001011
0001011100000101
0000100011110000
0000100010011010
0001001011010010
0000111110010000
1111101011101101
1111010011001001
1110111100110011
0000011001011000
1110100100010011
0000001000001010
1110010100110111
1111000011000111
1111111000010010
1110100000010100
0001010000011101
0000101110110010
0000000010010100
1111111001100001
0001001100111101
1110110101101001
1110101000000100
0000010000000101
0000100111001010
1111101101001110
1111101110010000
1111101100000000
0000001001011010
1110100110000111
1110101000101100
0010001010111110
0000011000100100
1111101100101000
0000101110010011
1110101111001011
0000111000000001
0000001111000000
0000101101011101
1111001001010001
1111000101011000
1111010111010100
1101000011010001
1111100111110101
1110101010111111
0000001001100000
1111000100000001
0000001101110101
0000000010001011
0000001110101111
0000010001110100
1111100110100101
0001110001110011
1111010110001110
1100111001100111
1110100110110101
0000010011111100
0000111000110001
1110110110010010
1110110100101111
1111100000101111
1111100001010010
0000001010011110
1110000101111101
0000000000000101
1111111010010100
0000000100101000
1110010011010100
0000010010010011
0001001001001010
0001101010010011
0000101000000011
1111101100011000
0010011001011111
1111011110011111
1110101110111010
0000011000110111
1110010000110011
1111111100110011
1111011101010000
0001011011011001
0001010001001011
1111010110001111
1110110110111100
1111001010101100
0000101100011011
1110011011110111
0001010100101111
1111011110101100
0001011110100100
0001111001111011
1111111101101101
0000001100000010
1110111000100100
1111110101100010
1110101001000111
1111111111000100
1110100010011010
0001110100100110
0000110010001000
0001010110100100
0000101101110000
0000111010011010
0000010101110000
0001010110111001
0001001100100011
0001101101111101
1110100001100110
1111100010111000
1111100101100010
1111101000001100
0001011110100101
0000101011101011
1111011100111101
0010010101011001
1110010110110010
0000001110011011
1111100010000001
0000011101110001
1110000110111011
1111011000101011
0000100001010110
1110111011101101
1111000000011101
0000100011000111
1111100100010101
1101011111001101
0000111111111100
0001001010100111
0000110111100011
1111001000110111
0000001101010000
0000010101111000
0000101101010000
0000111011011010
0000010110010010
1111011111101100
0000110110000010
1101100101010000
0001101111100011
1111010111100011
0000100111110011
1111101011100111
1111010000010111
1111100101111001
1111001000000101
1111100110101110
1111001111110000
0000110010111101
1111101101001000
1110011011100110
1101100010000011
1110101110100110
0000010001101001
0000010010110011
0000010111100010
0000001001000001
1111000100011000
0000000001010011
1111111110110101
0001011100000110
1111001101110110
1111010100101011
1110101001000101
1111101110011001
0001000011011001
1110100100011010
0001010001101001
1111101111111000
0000101111111101
0000001110011010
1111001001000010
1111101010001111
1111010110100011
1111100000000001
1110111011011011
0000100011000100
0000010011101010
1110111000000001
0001101100101001
0000101011001100
0001100101001100
0001011000101100
0001011101011101
1111100010010110
1111100001110011
1111010111100110
1111010111011100
0000010110101101
1111001001001010
0000011110100011
0001010111111000
1111001101011101
0000101010011111
1111001001110100
0000010000001110
0000011101110011
0000001010111100
1111100111000000
0001110001010000
1110110110000111
1111110110100111
1110100111001011
1101100100001100
0000110110000000
0000111010011001
0000011000011101
0000000010101110
0000111100011110
1111011100010001
0000111110111011
0001011110011000
0000001100001000
0001010011101010
1110010101000000
0001000100111100
1111100100001010
0010100110100011
1111000111111000
1110111111101010
0000001000110011
0000111001110110
1110101101011110
1111110111010001
1111111110110010
1101011101100111
0000010101010100
0010000000010111
0000000011001010
0001100111110101
1111100100110001
0001011000111010
0000101111101110
1110111101110111
0000110101111000
0000111000001001
0000001011000001
1110101110100000
1111110111101011
0001001110010011
0001000111011011
0000101001000000
1111101000011110
0001101011101111
0000010110100010
1111100011110011
1110011100010110
0001011100110110
1111010000000001
1111111101111111
0001110011000000
0001011001110010
0000100000101110
1111010111000001
1111010010100000
0001111111100101
1111111101011111
1111000001010111
1111011100010100
1111010101000010
1110100101010010
0000101011101011
0000101110011000
1111111010101001
1111101010000101
0000001010101100
1111010001100110
1111011101101101
0000010011000111
1111110100011011
0001100111101010
0001011000000101
1111100010011000
0000110101110011
1101010100101010
0000110111011000
0000100101101110
0000000110001000
1111010010001000
0000001100000101
0000110100001001
0000100101110010
1111000010011100
0001001101001100
0000111110011101
0000100100111111
1111001111101011
1111101001011111
0000111010111101
1111101110000001
1111010000001000
0000011111010110
0000001000100100
0001100001011010
0001000000001001
0000011001111010
1111110001011000
0000110111000110
1110001001101111
0001100101011010
1111100101010000
0000010000100101
0001111000001011
1110110100101110
0000001010010010
0000111010011101
0001111000101001
1111101000000111
1110010001010110
0000001011010110
0001001001011101
1110111001010011
0000100011110000
0001000110101110
1111110011100101
0001111110001010
0000001100011100
1111010000110100
1111011110101001
1111110110100110
1110000001010000
1111010101001100
0000001111010000
1111111101110001
1110110100001111
1110111111011011
0000110101110100
0001001110111001
0000100110111100
1111101001111011
1111010110111001
1111011000001001
1110100100110001
1111100100100110
1111011000111101
0000100101011101
0001101011011001
1111101001000000
1111000110101101
1111101011110001
1111111101100111
1111000001110001
1110110001110011
1110001111011000
0000100101100010
1110000110010000
0000100100000111
0001000101010101
0000111010000010
1110101110010011
1111010111010101
1111111101001010
0000111111111111
1111010110111011
0000010011011001
0001100001100000
0001000011101111
0000011100101101
0000100000011110
0000011010000000
1111100101101001
1110100001111101
1111111110001110
0000001101101110
1111011101011100
1110100011100010
1101101101000010
1101001010001101
0000101101110110
1110111111101111
0000110111010100
1110011101011100
0000011111000111
1111110110111010
1111110101000011
0001010001001100
0000110101110011
0000000001011100
1110111111011111
0001010111101100
0000010000111101
1111110100101001
1111111001001010
0000101111100000
0000011101011101
0001011110111100
0001001100001100
0000100110101001
1111010110010011
1110100010100000
1110000010001101
1110010110101001
0000011101000110
1111011101101111
1111100001000011
1111101110000101
0001010001001010
1110110100001010
0000001000010001
0001010111100010
1111011001001111
1111011101101110
0000100001011101
1111101001111110
1111101111011011
1110100000111011
0000000010111110
1111010101001011
1111110001111000
0000011110011100
0001010110101000
0000011001010000
1101000000010101
0000001000000110
0001011110001111
1110000010111101
0000001011010100
1110010111101111
1111101100010001
1111111000100111
0010101100001001
1111110111011110
0000101011000111
1110110101110010
1110100101001001
0000001101001100
0001010000111011
1110010001011001
0001111100101001
1111001000111011
0000010111100010
0000001000011000
1110111000010110
0000011001110001
1110100011111110
1111000111000001
1111101101111110
0000010001101101
0001100000000111
0000010100111000
0000011010110111
1110100111110100
1111100010100011
1111111010101111
0000110111101111
1110110011011001
0000111110000010
0000110010111101
1111101101000001
1111010100111010
0000010100100100
0001110010011001
0000000101111010
1110100001011111
0000010001111110
0000101011110010
1111010111010011
1111110000011000
0000011101000000
0001101111000010
0000010100001010
0001100000011101
1111111100000100
1110111101000001
0001010011101101
1110100100000100
1111101010100100
0000110110111101
0001100001110100
0000111111010000
0000101011110000
1101111011001010
1110000010011101
0000001111001000
1110111010101101
0000100000110000
1111000001001001
1111010010100111
0000000010010010
0010100111100001
0001011101111001
0000010110011011
1111111110000011
0000010111001111
0000100110110011
1110000110101011
1101100101100100
1111101010000100
1111111110001100
1111111011000110
0000000000110000
0010001111011100
1110100010000111
1111011111000100
1110000001111000
1111010101000100
1110100110101010
1111111100110000
1111110010110000
1111010101011110
0010101011110011
1111001010111010
1111110110110011
0000011011111100
0000001100001100
0000100001000001
1111111000011011
0001011100000111
1111101001110011
0001010110000010
1111010111100000
0000011001010111
0001100000000010
0000000100101011
1111110011001101
1111000111110110
0000001110011010
1111101000011001
1111111100011011
1111000001000110
1111001101010010
0001011110011111
1111011001011011
0000000101110001
0001001011101001
1111110110010111
0000011000111001
1111111010111010
0000111000001010
0001101000100110
1111010011101011
1110110110111010
1110111001100010
0000000011010101
0001000000100000
0000010000001111
0000001000001011
1111001110100111
0001001001000001
0000000001000011
1111110011010001
0000100011000000
1111011001011000
1111001101111000
1110010000101000
0010101010010010
1111100101010100
1110001111110011
1110111100101110
0000011101001111
1111101110100001
0000111101011100
0001110000000100
1111001100100001
0000110011111111
1110111011101111
1110101100010010
1111101001011100
0000011000101010
0000100111101110
1110000011011101
1111001010100111
0000000100010111
0001001111110111
0010100111111000
1111100101011101
1110001010011000
0001100010000111
0000000111001101
1110110011000000
1110000101101101
1111011101110001
0000000111101011
0000111100000000
0000010110111100
0000111000010011
