0.92794949
0.70437735
0.48383731
0.38066360
-1.25992393
0.01387862
0.46156082
0.11821123
-1.86522245
1.13928592
-0.27642813
0.05582504
0.16496553
-1.16195619
-1.30949509
0.00755132
1.73888707
-1.00985277
0.99789470
-0.60068792
-0.92132813
0.62097645
-1.30479181
-0.08730478
-0.77204359
0.82346022
0.06368537
0.80759120
0.49181882
-0.30900910
1.04668987
-1.77512813
-0.62974310
0.04764807
1.90612495
0.89137489
-0.80774611
1.60527289
0.08647418
-3.01494098
-0.37911224
0.88496506
-0.02381834
0.53084767
0.81403112
1.06113470
-1.27512836
0.39629757
-0.43591732
-1.11865866
0.38034031
0.28986180
1.29305363
1.14008391
0.37296352
0.82319790
0.78856498
-0.52335674
-1.17120159
0.57610643
-1.84820771
0.43318647
-1.03726256
-0.43375093
-0.11228703
-0.56769681
-0.12506902
0.48886219
-1.14487755
-0.88639742
2.65122843
-0.89099652
0.62584454
0.15791334
-0.56009477
1.29322040
-0.17830262
0.83245122
-0.84976298
-0.17866768
1.79305589
0.50648451
1.68633687
-0.07468332
-0.62680638
0.22449632
1.04299438
1.52103949
0.51407909
0.79241008
0.95689374
-2.44873405
-2.62236023
0.16113672
-0.30627921
-0.75322247
-0.28872716
-1.04969144
0.07885570
0.15547746
0.06893867
-0.42560622
-0.59330231
-0.89722419
0.42034596
-0.29180971
-1.06744790
0.35931873
-0.50748038
0.15929180
1.35701072
0.54002124
0.28319284
0.63275713
1.06515074
0.23415691
0.26928806
0.44065908
0.74594349
0.92291141
0.45527583
-1.88541090
-0.24615547
-0.92855728
-0.12212467
0.25084001
-2.12958336
-0.62936348
1.77352667
-0.98873818
0.64561111
-0.06023580
0.93330002
0.81269056
0.16739999
-1.88786662
1.26485729
-1.12724316
-1.61540556
0.32538709
0.90064400
-0.64917415
0.32914722
2.29987192
-0.18304563
-1.17049694
-0.70293540
-1.57528341
0.31680816
0.66268849
0.37050131
0.54854554
-1.32477939
0.30640090
1.33354640
1.67836523
-1.27790892
1.17655587
1.23339415
1.50101352
-0.64962608
-0.61272472
0.40502191
-1.18600380
1.42777324
0.67394215
-0.12656447
1.38525057
0.06807626
0.89188403
1.58208847
0.35818529
-1.51667356
-0.51061344
0.73183912
0.90328491
0.38145250
0.91931593
-0.48934293
1.79664338
0.41568956
1.50466752
0.61923939
-0.59844184
0.32265323
-0.35131121
0.04043265
-1.53757942
-0.21011320
1.51270032
0.21631649
0.18310915
0.49899623
-0.13322148
0.04761383
0.39512685
-0.66362327
2.17554879
-0.20724726
-1.46980917
-0.45607367
1.38169956
0.29774451
0.52209044
-0.36125875
-0.19746485
-0.58484000
1.53842723
1.96920919
0.53055710
0.72584295
0.27767763
-0.31595823
-0.70174259
1.06360328
0.36231947
-0.28168520
-0.66881019
-1.07550287
1.28221488
-0.06573395
-0.43936518
-1.17041337
1.77895153
-0.03443062
0.73623681
1.47519827
0.63630146
0.26106468
0.69329584
1.00944412
1.23586726
0.44734952
1.10677695
1.21222603
0.38552174
-0.29176068
1.08779693
-1.98409653
0.48411879
2.07211375
0.05507710
-1.50095248
-1.28070176
0.36684614
-0.09407897
1.33692312
-0.12240029
0.03489665
-0.90619063
0.23794182
0.25132969
1.32083094
-1.40096772
-0.76824266
-1.06350267
-0.03562692
0.34310865
-0.23563588
0.48459700
-1.44083846
0.43427369
2.01851320
0.09947658
0.04770540
-1.03028655
-0.52722323
0.88847619
-1.50561237
-1.02882826
0.89372653
-1.52575731
0.22204845
-0.61284202
0.96979213
1.63617945
1.06618106
0.11378447
-0.17191887
1.57614756
0.16564444
1.28102684
1.88319075
-0.02400896
0.40608278
0.56502277
-1.21883988
0.60737211
0.23861548
1.11896849
0.78299016
-0.37485492
0.46281272
-0.15150110
-0.25665078
0.85428530
-0.32184553
-1.43327224
-0.43828759
-0.57649434
1.99233496
0.85208005
2.18077612
-0.25046554
-1.14550662
-0.70107418
-1.55908513
-0.41237509
-0.16245311
-0.16002457
-1.53723395
-1.06453812
0.26999858
0.04849251
-0.11920704
0.58673757
-0.75200886
0.10897588
-0.93349022
0.83722240
-1.53818238
0.11179388
1.48636949
0.42592940
0.26422444
-0.83462584
1.61373639
-1.04323888
-0.28544635
-0.20710403
0.97757828
0.65974438
-0.08388903
-0.09829460
0.64514542
-0.54996920
2.26112771
0.38644701
2.04825926
0.61692631
-1.31324065
0.58427393
0.86089230
-0.36310509
-2.20677495
0.29298088
0.72378188
0.01166865
0.22070925
0.53919798
-0.01417616
0.48864034
-1.38986099
-0.99080950
1.35039592
0.27842298
-1.08386099
1.02409959
-0.92550266
-2.32821989
0.37399375
0.04876040
1.30345333
-0.19671667
-1.04979730
-0.33464357
0.42602819
-0.66893655
0.17943205
-0.40000856
0.24749081
-1.60284674
-0.10482171
0.54454219
0.89432508
0.06260340
-1.00812137
-1.11636817
0.39549464
-0.78413671
-1.10678577
0.91642028
-0.57769418
1.22851694
-0.18817373
0.68659943
0.36927274
3.29907656
2.01602578
1.85914326
1.03898931
0.95134383
0.33365017
-1.29157376
0.15392096
1.28899384
-0.36591730
0.52269191
-0.18425044
-0.76924676
-1.44295323
0.35591081
-1.65464771
-1.45225942
0.09017961
0.39563420
0.26510748
-0.00859010
1.79220116
0.41238481
0.17002447
-0.26944342
0.16188124
1.07561803
1.43203175
1.39885831
-0.61124891
-0.24222696
1.16208577
-1.05412269
-0.65733033
0.12438170
-1.41638196
1.00620818
-0.03792076
1.04448402
0.50070763
-0.26835072
-0.84304196
-0.29431432
-0.67098153
0.96887100
-0.19213010
-1.99722266
0.40556234
0.37215516
0.27388740
0.39939958
-0.72708911
-1.10399747
0.95917922
0.96919280
0.77668720
0.57037312
0.73411381
1.18865860
1.07933295
-1.28016126
0.40956470
-0.12103393
-1.12204480
1.45345271
0.70184034
1.14427674
-0.87634951
-0.67100716
0.09649474
0.34032929
0.81740820
1.21137297
-0.77581728
1.44321239
0.06725076
-1.01561964
-0.12256649
-0.03445325
-0.48665497
-0.10677110
0.64278138
-0.21700664
-0.54284996
1.35737288
0.58860594
0.85782868
0.04165082
1.10580909
1.08334231
0.70151675
-0.07691111
-1.15963328
-1.41037667
-0.29549414
-0.57377458
0.25036752
0.19896062
-1.27915061
-1.48929691
0.08044279
0.62552798
-0.21043168
-0.13436049
-1.27071702
0.23905940
-0.16117646
0.03200000
0.33024895
-1.77018404
-0.92024875
-0.95462537
-0.53233999
0.11907434
0.43424886
-1.65805566
-0.95421243
-0.02814313
1.05848408
-0.93079644
0.20503069
0.42592418
0.90665287
-0.29914430
-0.58697641
0.72461212
-0.29192454
-0.00827071
0.14446838
-2.20215607
1.21807134
1.28634036
1.02521813
-2.38563752
-0.34006923
1.23106408
1.32613921
-0.83421773
-0.23469113
-1.52615929
-0.22204478
0.67079741
-1.42195535
1.20243335
0.46035355
2.41856837
0.23453447
1.42367840
0.18277603
-0.41536295
-1.23803735
0.74029195
-0.72174060
-0.01041207
-1.51564538
0.35921037
-1.48895121
-1.66522586
-0.53243697
1.24569595
0.55461115
0.80308086
-0.97054374
-0.08455426
0.51320338
0.61982542
-0.03192332
1.90945268
-0.66129583
0.64210838
1.28489149
-0.13943763
-0.64561558
0.60422194
-0.63743097
0.54881054
0.38091359
-0.25056055
-0.66800231
-1.03097451
-1.55841494
-0.11498278
0.80177516
1.06200504
1.41365469
-3.02055144
-0.27673417
1.27836823
-0.13021459
-0.90759128
-1.44449341
-0.44628578
-0.92852026
0.27267826
-0.44784522
1.33437383
0.42515689
-1.00855434
0.03665872
0.80628365
0.12716676
-0.30794129
-0.04125598
0.61164075
0.13856311
0.54457545
-0.95496505
0.36417454
-0.91828877
-0.90314168
-1.53398287
1.11786580
0.20358549
-0.08667549
-1.44127357
0.48435491
-0.22302403
-0.73066825
0.20243740
2.52152491
0.27999711
-0.50993264
1.42212832
-1.51074278
-0.37079167
1.11351550
-1.03025973
1.11371553
1.03486180
1.51357353
-0.24061270
0.36429143
1.08308506
0.37543833
0.00238142
0.53131050
1.14958155
0.15018821
-0.02909116
0.43032277
0.25653195
-0.53098851
0.50161886
-0.51179820
-0.63313729
-0.62267423
0.62636656
0.93212187
0.84909213
-0.98733395
1.75258505
1.30199111
0.43536168
0.65636694
0.04568794
-0.89650172
-2.37061548
0.69162816
-0.46014839
-1.38940573
1.21233535
-0.93583250
-1.58207870
0.89390075
-0.97421753
-0.43949869
0.74699122
0.48455620
-1.53938854
-0.26050127
0.39424390
-0.95224488
0.63449723
1.00556791
0.88570237
-0.48656440
0.45457250
-0.91451639
-0.11338272
0.14118639
0.71523362
0.69219100
0.16244507
-0.89467776
-0.67847538
0.24250877
0.66853964
-0.17046033
3.05009532
0.40783051
-2.12824893
0.20113820
-2.69014144
-1.54786968
0.41947773
-0.00807669
0.70171869
-1.33660948
0.87538069
1.29841089
-1.82567847
0.28826901
0.28885883
0.76979232
-1.31734800
-0.66528636
-0.60094827
0.67787939
-1.18913114
-1.17612886
-1.95740736
-0.37836874
0.27092749
-1.15150511
0.14180844
0.55607182
-1.57019758
0.81019247
0.14934081
1.16669226
0.75440842
-2.99624062
0.45299256
-0.67687815
0.53539753
0.21518846
1.09669936
0.04492427
-1.07602882
0.92565930
0.10661245
-2.39899635
1.99943221
-1.01210332
-0.01773264
0.16903394
0.01031100
1.05031407
-0.60059071
0.07612257
0.25383925
-0.28518203
-0.20686668
-0.65012389
1.62603199
-0.05420620
0.52448410
1.97997689
-0.69288129
1.25560117
-0.63651371
0.26414323
1.30510688
-0.56645018
-0.30772471
-0.52627033
0.40556490
0.93438929
-0.89384043
0.10140003
-1.23490679
-0.42736289
0.18732515
0.26943099
0.80247408
0.40123782
0.81808376
1.74717784
-1.28280210
-1.66756427
-0.10023219
-0.44152001
0.92803216
0.65750152
-0.99051058
0.44980687
0.00419495
-0.22259352
-0.44620255
-0.63800561
1.09881437
-0.40495703
0.76874477
-0.90888691
1.06707561
0.28820014
-0.26389870
-1.30749369
0.90611440
-0.23201336
0.18887821
-0.35954183
-0.11805900
-0.60683787
0.73247296
-0.72231334
0.50693166
0.47339147
1.46631193
-0.21274339
1.89524674
-0.21419589
-1.24931312
-2.53596067
0.93790209
0.04452468
-0.27046242
0.06840257
-0.88799649
0.68195534
-0.22748327
-1.17524040
2.01039529
0.32295349
-1.70308220
0.24326065
-0.84108454
1.25837529
0.86806798
-1.24171352
-0.10815071
0.07177486
1.44554543
-0.11636469
-0.50139868
1.49123490
1.70551980
-0.07504444
-0.77488822
0.45439538
0.45105392
1.49941254
0.97508055
-0.60654938
-1.16788566
-0.09744115
0.96832728
0.68525666
-0.70117021
0.33686554
-1.49083972
-0.08344658
2.35329700
0.29794067
0.34366834
0.26437563
-0.66357720
0.30159470
-0.05842655
-0.31772700
-0.16380523
-1.06113458
0.02356224
-0.20074221
1.34233940
-0.10255934
0.80078477
-2.31626725
2.32280278
-1.32755435
0.70808262
-1.33102846
0.16288075
0.00208329
0.56764603
-0.51227373
0.62559539
0.29916066
1.20110583
1.41077018
-1.17659485
-0.18868907
1.09332085
-0.58130360
-0.93711472
-0.15065810
0.32900140
0.15593718
0.65887421
-0.30941093
-1.04696369
0.96027517
-1.25760293
-1.09494269
1.47038150
1.42900097
-1.04498601
-0.06432892
0.91685432
-0.08480201
0.38869208
0.74321747
-0.97518039
-1.33454728
-0.38081574
-0.77874112
0.71857804
0.56244081
-0.15489358
0.29615134
1.41347933
0.86207515
0.18411729
-0.79158992
-2.08190966
0.14081588
-1.59310758
0.38753784
0.29059106
1.31347227
-0.74856478
2.57520604
0.60520464
-1.13868785
0.55618966
0.41843981
-1.29080856
-1.26261997
-0.77850288
-0.10752293
0.98630881
2.89125037
0.84584600
0.97504365
1.91507244
0.73147166
-1.56292474
0.37000537
-0.10698254
-0.60002911
0.01203115
0.42725039
-1.88805020
1.18526852
-2.46727657
0.84041440
-0.54232568
-0.29432860
1.32985365
0.60793185
-0.22786666
0.37188414
0.93060553
0.77257049
-0.31443903
0.69266981
0.55337399
-0.57307601
-1.15294182
0.58139765
0.24633355
1.01089215
-0.53172010
-0.79331917
0.81973696
-0.64928991
-0.10575426
0.60198677
0.97808331
1.39288199
1.68521655
1.12275732
0.50088155
1.61588633
-1.32154143
0.40867653
-0.21946511
-0.59211183
-0.39752623
-1.74044144
-0.26750246
-1.18471253
1.09742045
-0.86269784
-2.14409113
-0.49258700
0.26967290
1.43713295
0.01069682
-4.10867071
-0.70037740
1.70254457
-1.44923663
-1.42165589
0.77359039
-0.68120158
-1.03546011
0.39028323
0.41459170
-0.52401727
-0.16661327
-0.72678107
0.16884199
-0.16988966
2.49536014
0.20761746
0.80761546
0.34074497
2.16105294
0.64610195
-0.37066314
0.00778126
0.82892781
0.52177221
-0.23041669
0.04373617
-2.10718560
0.26110968
0.82739979
0.62811196
0.73282236
-1.29880440
0.86927253
-2.60180306
-0.39495423
0.08374237
-0.88339359
0.58043659
0.04649038
-0.70433891
-0.28067169
1.05633521
-0.06632221
0.19448313
-0.76411015
-1.16258144
-2.10414863
0.98111206
-0.43291879
-0.06660239
-0.49457911
0.11540184
-0.44529632
0.75022084
-1.05169940
-0.77184296
-0.56987911
0.49990290
-1.85221279
-0.63623267
-0.58671260
2.17063355
0.80979908
-1.19254899
-0.05776310
-1.49090195
1.35217047
-0.37509754
0.88612980
1.22665668
0.99963820
0.35013700
0.45364347
0.93381077
-1.43113506
0.55700177
1.19462073
0.76656723
-0.48768774
-0.24155357
0.45214087
-0.08422439
1.33568263
-0.95556402
-0.26813626
-0.01022804
0.57437629
-0.07508112
-0.63510704
-1.34373641
-0.32967475
0.94872510
0.08615858
-0.72052073
-0.86024386
2.64291811
0.46359757
-0.46912351
0.33137271
-2.46908665
-1.79280317
0.29319066
-1.03702748
-0.45371532
-1.22077143
-0.10585322
0.11911944
-0.21288441
0.99948281
0.63340014
-0.83089942
1.33717608
0.08390556
-0.83240771
-0.03793332
0.61344004
-0.04780771
0.15607235
-2.20488501
-0.08632129
-1.53126824
0.45199180
0.28735924
-0.45912504
1.00364077
-0.78829515
0.71736151
1.30217588
-0.60812461
-0.72616678
1.68177962
-1.28779244
-0.02964772
1.10280263
0.99523187
-1.42508554
-1.47916913
-0.43465817
-1.13582432
0.89060158
-0.51183689
0.17108676
-1.22690189
-0.40234205
-0.00896224
1.10685325
1.20484376
1.64169431
1.46681905
0.64721775
0.21833766
-1.83183181
-0.96951455
0.37550813
-0.16169396
0.51300412
-1.44901955
0.21907057
0.27130514
0.34054238
0.72893339
1.13521242
-0.52879924
-1.30106151
1.27670467
2.42221713
-0.72723806
-0.35578269
-0.11765961
1.53099167
0.89611560
0.10690068
-0.13309674
-0.36842176
-0.62326300
-0.31233907
-0.55491358
-0.38101065
-1.64855731
0.19390441
0.00486173
1.20534527
1.66301024
-0.84679586
-0.25318938
-0.50427115
0.01343551
0.16155592
0.17816353
0.51851326
1.19707716
0.39757761
1.22881532
-0.72280759
1.79761767
-1.28134739
-1.66918159
0.96934468
-1.26819205
-0.93888277
0.54355431
-0.84337300
-1.27545369
-1.12288237
0.29050449
0.66366220
-0.07393595
0.84492695
-0.48578942
-1.58577764
-1.34930837
-0.66699398
1.48670363
-0.55717373
-0.11363742
0.48842996
-0.20511469
-1.44110107
-0.88713109
-0.80196923
0.94993216
-0.19187792
0.64953655
0.55489808
-1.14163852
0.97917902
-1.19706571
-1.42470741
2.56754708
0.40938058
-1.02128017
1.38577759
-1.66286790
-1.40864003
1.52907765
-0.67981076
-0.53296864
0.82813942
0.07597794
-0.68867254
1.58949792
2.70873117
0.32963857
1.07652855
-1.27748311
-1.37465394
0.60959351
-0.02043537
0.25643566
0.94993514
-0.20882720
-1.30557394
-0.13624802
-1.28089440
0.84409148
0.29648483
-0.19315507
0.29791427
-0.35753193
0.45122993
0.09998350
-0.08963270
-0.27570134
0.26499215
0.26376575
-0.55471122
-0.40706357
-0.62543756
1.34865451
-0.01981325
-0.28692552
0.61977327
0.62267506
-1.23882818
-1.24525154
-0.31857386
-0.04991259
1.26820707
-0.45203528
2.62498760
-1.07585061
-0.30220482
-0.34621057
0.66450256
-0.56302530
0.45725530
0.04158837
0.30484718
-1.68383086
0.69259119
-0.72592109
0.00794625
1.75752425
-0.60087359
-0.51141983
2.10434699
0.17358088
-0.00935035
-0.46558234
-1.27720511
-1.94452631
-1.80317950
-1.37226236
0.01588716
-1.18645072
-0.62281704
-0.65845931
0.33034334
-0.17490458
0.40603140
0.93129343
-0.22444856
2.62706184
-1.55747640
-0.48616895
-1.00862885
0.92655563
0.01979384
0.29413635
-0.92172396
0.24304435
0.37520733
0.18173842
0.35089165
-1.71774149
0.51523107
1.49820650
0.37367609
1.54181981
0.12882659
-0.86561853
0.07752394
0.21241856
-0.50376117
0.20362392
1.10433757
2.46655798
-0.17537969
-0.10094263
-1.07321179
-0.72189546
0.18945453
-1.84744108
-0.83615094
-0.54004920
0.70073283
-1.19804060
-0.25773951
-0.89353430
-1.25571644
1.16183913
-0.06872867
0.46202502
-0.01868434
-1.16845286
-0.00812966
1.19986439
0.69624323
0.81254673
-0.91237706
0.31004488
0.07982679
-1.42607605
-0.68699330
-0.57540399
-0.95795196
1.56776607
-0.25264996
1.12267840
-1.86290574
0.20603473
0.04418925
-0.61770678
0.87294281
-1.56625903
0.01531596
0.68236065
-0.92409772
-0.52565813
-1.57407498
0.41787428
-2.37866545
-1.56986976
-0.49845365
-1.18758738
-1.32314515
-0.30443543
0.01260070
-0.31272230
2.04556632
-0.49319774
0.65235114
-0.39662385
-1.58312690
1.33114231
1.12756217
0.80811310
0.41410473
-0.16412154
-0.30873480
-0.90595257
0.21032815
0.66867304
-0.24084580
-0.04163641
1.31309557
-1.33250153
0.32424060
-1.64682734
1.52758217
0.58939582
1.65069067
0.84846258
-0.03153922
-1.03294194
-1.66852856
1.34112906
-0.17474633
1.59702253
0.03270094
-0.78854358
2.02674532
-0.54889208
1.44319701
0.97083896
-0.06096238
2.74113512
0.17909151
-0.02408952
0.63835478
-0.98603439
0.55725878
-0.16671607
0.00370255
1.00311267
0.47623950
-0.30092868
-0.30395705
-0.12017966
1.60441840
-0.76777959
-0.47033882
-0.94206524
0.68114132
0.78693396
-0.55702358
-1.83198702
1.37769222
-0.51882428
0.32119077
0.31229353
0.04936492
-0.47370052
-1.44681478
1.72106576
0.48746511
-0.58307868
-0.49761468
-1.21930087
1.90130460
0.96219540
-0.13994791
-1.64523590
1.27332926
2.24242020
2.03380919
0.50616646
-0.70371753
-0.99845731
0.04249337
1.83886099
-1.09504282
-1.18794608
0.82340598
0.46269467
-1.44901574
-0.64534765
-0.73891324
-1.26293361
0.17509761
-2.59203792
-0.86481071
1.82014334
-0.33048233
1.85983264
-0.50664568
-0.91816640
1.89038432
1.11857069
0.43490726
-1.27110970
0.23577800
1.24355626
2.35140657
1.91262400
0.67605662
0.10781713
-0.87480849
1.98197019
-0.22285359
0.42577943
-1.96194470
0.17815728
-0.02468992
-0.36269596
2.66016769
0.65695524
-0.12135314
1.18338895
0.33522964
-0.70873058
1.02903736
0.42482218
-1.42432940
-1.48656237
1.07922840
0.18750241
-1.40167654
0.43249992
-1.72513342
-1.51349556
-0.36244163
-0.72936797
1.31789827
-0.17819092
-1.45276105
-1.51979232
-2.50791216
0.86510670
-1.13390052
-1.46390200
-0.90870094
-1.14116848
0.07979283
-0.43338141
0.79660046
0.50341862
0.69754267
1.31860673
-0.44489044
0.03997169
-1.53501105
0.56472284
-1.58946824
-1.16013563
-1.09643686
0.38543460
0.70860910
0.40584794
-0.54994196
-1.32591403
-0.38452297
0.05014243
-0.19429025
0.66300213
-0.50286335
-0.97854972
-2.11823964
0.70876706
-1.18416500
-0.27911747
1.33238757
-1.02948594
-0.14198568
0.63805848
-0.87343216
0.64760238
1.46308970
-1.68719769
0.81404561
-0.14252752
0.29384959
0.04339591
-1.62117803
0.33131132
0.03624668
0.83375591
0.11788050
-0.92460102
0.86499655
0.53716075
0.85717720
-0.37678769
-0.41314086
0.78934437
-2.58595228
0.47457293
2.30485892
0.89851928
0.55553937
1.29512453
-0.97410595
-0.01270798
0.19822490
0.00591983
0.45112470
0.48349854
0.16191019
0.56704813
-0.81002921
0.31018725
-0.17522347
0.58130187
-2.01183009
-0.42998216
-0.90912086
0.88207215
0.68575948
-0.40608495
-0.59408730
-1.07596755
-0.68634719
0.77245241
-0.04107337
0.90098333
-0.74671793
0.46855617
0.44607529
0.02312043
-0.66782653
-1.77609372
-0.48926100
-0.62069857
-0.76775467
-1.68304908
0.90828389
0.76498908
0.06206590
0.94863874
-0.21653028
1.68274832
-0.23407525
2.06315756
-1.33323205
1.20545089
-2.00522876
-0.35409525
0.32349119
-0.91103268
-0.74919111
-0.60400230
1.00203955
0.88736075
1.02841747
1.70425785
0.93022889
0.91791141
-1.70745492
0.03496326
0.57585317
1.30834043
0.52875149
1.82193172
-1.44952059
0.98981673
0.95617753
-0.22629583
0.39955807
-0.65319824
0.17151259
0.69536096
-0.60309672
-1.23777187
0.52705580
-0.22062615
0.40744084
0.46518448
-0.62028015
1.45741093
-0.12563291
0.10563762
-0.51132035
0.61501306
-0.22433113
0.45825794
0.41285816
-0.00911011
0.90714562
0.53892767
0.59783894
-0.11873927
0.48370138
-0.09248892
-0.49821061
-1.19460094
-0.42062220
0.88382775
0.31775981
0.39419800
-0.44810402
-0.12461806
0.56026596
0.22144809
0.10797966
1.55626941
0.43420544
-0.75306040
-0.50284570
-0.09220593
0.62280208
-1.20988345
-1.09921813
3.08681822
0.00729608
0.58812582
-1.21007812
0.11521887
-0.74904478
-0.50582802
-0.00578471
0.72862291
-1.63358545
0.63960320
0.46186566
-1.03389478
0.17789474
0.46554917
0.05014651
0.52049214
-0.40050164
0.08607496
0.79543442
-0.79583120
-0.80349636
-0.93522525
-0.09332089
-0.60532796
0.32126832
1.20242190
0.50107187
0.43511969
0.11843877
-0.31830874
-1.36321890
0.60819602
-0.66609138
0.58330244
-0.73712581
-1.45606673
1.18224406
-1.57191312
-0.88357544
-1.24935782
0.75436425
-0.85615885
-1.42222130
-1.42897511
0.68921387
-1.46479356
0.68643701
1.01835442
0.27637511
0.52590775
-1.55688751
0.48738429
-0.41698009
0.29945320
-1.40007412
1.03000641
-1.25066745
-0.17432664
1.07112718
0.74066031
-1.61225736
-1.75245905
-0.06536590
1.46769381
-0.42572662
-0.44356757
-0.73814213
-0.27352035
0.02900593
1.35627925
-1.25114024
0.21068276
-0.10510538
-1.07746196
1.63710463
-0.90599579
-0.61702263
0.20043537
-0.53912795
-1.04588652
1.08703423
1.23803759
1.41846907
-1.42806852
0.54260337
-1.52321172
1.25342822
-1.91108954
1.21038163
0.26334488
-0.25256217
-0.55542678
0.18210505
0.83220732
-0.94532686
-1.05598903
0.57050782
-0.85223019
-0.97490728
1.34124804
1.48104143
1.42356575
-0.24621707
-0.81611693
0.38482615
1.47708058
0.71134609
1.42873192
1.11253273
0.76694566
-0.08639116
2.92236972
0.28880039
1.46056509
0.44470420
0.58606333
-2.59241819
0.97133273
1.53201020
0.94956440
1.52934825
-0.96134245
1.19747484
-0.55380422
-0.04432705
-1.16534996
0.63268632
0.55871820
2.40309572
0.95435584
-0.42186502
3.20994210
1.01312041
-0.67257988
-0.26328698
0.89399683
-0.89514530
1.60700119
-1.27319396
-1.87772083
1.58995903
1.19374168
0.12215867
-0.41292518
-1.24822295
0.17368288
0.98829734
0.69776428
0.97031432
0.43310544
-2.65081906
1.05502117
-0.40743065
1.31972313
-1.12567806
2.13645482
-0.29549146
-0.04407991
-0.26021838
-1.06759989
0.01451897
0.45433354
-0.75969881
0.54448712
-0.60682714
-0.44867185
-0.28484330
1.10099673
0.82646298
-0.51496243
-0.98343748
-0.21508020
-0.99875587
0.01902599
-0.19521859
1.01822329
-0.80227613
-0.22826128
-0.02490295
0.97124118
2.61178184
1.41478717
1.18915284
0.30416563
-0.91185659
0.22343744
-0.41669127
-0.80862784
0.41427484
0.80438834
-1.58623683
1.29747736
-0.69273412
-2.35931277
0.23622936
-1.28822887
0.54003972
1.80769646
-0.98288554
-0.35121873
1.86243534
0.68629980
-1.63411152
0.84240991
1.90598631
0.71138865
-0.12907611
0.54787755
0.11729164
0.32764828
-1.13468492
0.68299341
-1.35732543
0.99061173
-0.17315349
-0.64648604
0.27974719
0.02873839
0.45984590
0.71158057
0.26023760
-0.34828141
-1.00388300
-1.27706838
-0.01492311
0.92570645
1.72940195
1.39796865
0.45517030
-0.38131261
0.34203291
-0.53497601
-2.11000323
-0.13908119
-1.37743402
-0.27925953
-0.14219126
-0.33982611
1.19121087
-1.03918147
-0.01531794
-1.58238506
1.30714595
-0.34216169
0.57115948
-0.74441165
-0.61353254
0.03533680
0.87998706
0.84014452
0.89682531
-0.49062482
1.15708995
0.27232048
1.42038190
-1.90720177
0.18342133
0.79387200
-1.17611861
1.09739590
-0.00226620
1.28133476
0.46715316
0.91785520
-1.81589258
0.14810486
-0.72106439
-0.48780686
-0.60772431
1.27122474
0.20883195
0.70303869
0.60198849
-0.79965109
-1.16037691
0.09909403
0.21045917
-0.39166781
-0.30944160
-0.89280969
-0.46356416
-1.23414457
1.58757353
-0.23517296
-0.44519401
-0.39602491
0.14155677
-0.02124654
0.43313274
-0.05476265
-0.40960202
0.13099848
-0.79605210
0.82862538
-1.09388888
-0.25965661
-0.68203413
0.77500790
0.68169481
-1.33800435
-1.16012144
0.53780359
-0.43372896
0.57765710
-0.21625246
0.22873855
-1.24106574
-0.92367512
-0.29105473
-0.88814318
-0.02498073
-0.04390175
1.21058345
0.19696707
0.25146839
-1.15288103
0.20711525
-0.12168475
-2.39889503
0.69747025
-1.81945181
-0.80228442
0.21097755
0.35284710
-0.82020283
-1.29486012
-0.02161014
0.49404186
-0.56763244
0.74677277
-1.31612682
0.89983851
0.02122901
0.61965328
-0.13196506
-1.38311875
-0.10199457
0.44805521
-0.50929254
-1.30021644
-1.08932185
0.99652195
-1.37157023
0.09500410
-0.50602365
0.05386876
-1.57198286
2.03532314
-0.98691893
0.70517176
0.45492834
-0.60695052
-0.97698051
-2.79366565
0.12498228
0.91313702
-0.23504247
-1.14172006
1.71647775
1.45487761
-1.09841907
-0.81896490
0.00852779
-0.02814166
-0.24625076
-1.34799826
-0.34381917
1.54861915
-0.08393186
0.20438862
0.31425822
-0.46227491
0.82411683
0.71049064
1.56373477
1.28533792
-0.37098733
-0.24455002
-0.35446653
-0.34311610
-0.67396957
-0.26271787
-0.93177330
-0.22913960
0.63129354
0.10267188
-0.11668685
0.32702205
-0.47728041
-0.95603108
1.04294705
0.20019524
-0.82466799
-0.75912958
-1.04460311
-0.27083749
0.29599506
-0.33884129
-0.94198656
-0.52389008
1.23572624
0.96161908
-1.35837090
2.33502674
-0.55561751
-1.33166122
0.35389283
1.64114761
0.61484373
1.10992122
1.47357118
0.04957854
-0.60927397
-0.42034554
0.65328729
-0.46472463
-0.13471381
1.96900904
0.48844960
-0.35719794
1.14635789
-0.21149209
0.68510020
0.02546027
0.50008917
-1.73631895
2.11438632
-2.02577829
2.09066844
1.03417146
0.87971997
1.37484026
-0.63262695
0.63001478
-0.09821547
1.10987806
-1.01181948
0.35885048
2.55850625
-1.62859201
-0.46946657
0.72746241
-0.34882367
-0.48374826
0.09274840
-0.71976566
-0.56318510
1.39947498
-0.67434734
-0.65166247
-0.65594208
0.31986639
2.08290100
-0.27356797
1.48835897
1.79938757
-1.11762381
0.47095433
-0.41373706
0.68089086
1.42072010
-0.63830537
-2.08211017
0.63672668
0.74201012
-0.56414825
-0.03010473
2.23387408
1.11155879
1.14912534
-0.08472362
0.36740601
0.26697960
-0.93270701
1.13344669
-1.25593078
-0.88190967
-2.49039507
-0.50243396
-0.90346766
0.47673339
0.31910121
-0.42303523
1.17100251
1.80270374
0.41345266
0.35125780
-0.16632633
-1.01013541
-0.88007110
-1.25402176
-0.79922342
0.49743634
0.71964371
0.96075350
0.82297581
-0.50628448
0.10861874
2.23231006
-0.17861846
-0.36851069
0.71293485
-0.11215425
0.45546719
0.42670557
-0.39082944
0.79642707
-1.64360678
0.33330202
-0.92641854
0.38484982
0.84771407
0.67477620
0.65223837
-0.03773237
1.73786390
2.69419742
0.23747689
0.34642866
-1.54831076
1.13805890
0.52264392
-1.03078246
-0.08606930
1.53495550
-0.78629166
-0.30643603
-0.01796769
-1.51047516
1.01223993
-0.60197377
0.10415541
-0.21718249
-0.66413379
-0.47879604
0.50289100
-1.80394650
-0.63634998
-0.56295741
-1.29006886
0.77240044
0.06564032
1.50800443
-0.64738983
-1.41309440
3.53045988
-0.66691780
1.79285693
-2.44518018
-0.34827089
0.51236391
-0.02569334
-1.37897348
-1.75701547
-0.57134253
0.47849673
1.14374435
0.00362552
-0.98405081
-2.71152377
-1.36418557
0.06571343
0.97772557
0.14671525
2.64330459
-0.87625396
0.33784446
-0.11964931
0.73253775
-1.66313148
-0.75229597
0.17355402
-1.67640126
0.87464929
-1.63730586
1.53888369
2.20582342
-1.62840533
-1.26626945
-0.87734985
0.87799740
-1.08295763
1.77139485
0.83048147
0.04151180
0.16508983
-1.63735414
-1.13326824
-2.88359642
-1.27278101
-1.99077237
0.31927711
-0.03715944
-0.24738118
-0.16579805
-1.12144637
-0.29447189
-0.23608205
-0.95885569
-1.40113187
-0.57086974
-1.26531625
0.36819151
-2.38676310
-1.47205222
-0.19765845
0.51316869
-0.56229275
-0.88438904
0.99052620
1.76066875
-0.27490273
1.04211569
0.17092289
1.45068753
-0.62024426
0.54988611
0.10190211
-2.54262853
-0.14626361
1.54307282
0.89426690
-0.06417072
-0.52540058
-0.22265257
1.27645159
-0.39246741
-0.02899086
-0.40004489
0.06783727
-0.01249459
1.49035120
0.86964971
1.16269374
-0.03022110
-2.14500880
-0.50089228
1.43114197
-0.34930950
1.50402880
1.79233682
0.74730736
0.99463814
-1.93456149
-0.06768513
-1.80778849
0.81318063
-0.34215686
-1.37645900
-0.88266110
-0.62185699
0.28277221
0.20932060
-0.05379996
1.04845762
-1.00832152
-0.14313884
-0.75424922
-0.92463803
-1.02567720
-0.65444654
-1.39113891
-0.04292138
0.42394695
0.14316951
-0.28327414
-0.06555374
0.46940875
-0.09737523
-0.18195988
-1.02105117
-1.65434277
-0.75191200
-0.74687713
-1.08283150
0.29750922
0.50662363
0.25347033
-0.51713812
0.09940341
1.23210335
0.07529376
0.34897879
0.46140692
0.49091750
-0.62937266
-0.44639584
-0.30316925
0.96820545
2.04274654
-1.78963590
-0.12075841
0.04118100
1.43592811
1.46211493
-0.47085738
-1.77627444
-0.73422015
1.51253664
-0.65339392
0.85692066
-0.50258398
-0.16798024
1.08643949
1.15548182
0.42226785
-1.10022628
-0.06246299
-0.90487266
0.56007063
1.24233425
0.87313759
-1.19505119
0.51078540
-2.49756646
1.85977995
0.34480822
-0.12029761
-0.14194019
0.44784245
0.15226328
-0.09209989
1.35717690
-1.68399799
0.02064048
-0.51726103
-0.55858374
-0.58859974
-0.79041249
-0.13741037
1.74198639
0.44281706
0.52482343
1.90493822
-0.00807908
1.23550928
-0.59738785
-0.28519332
-0.34813696
0.13134733
1.08399320
0.89423859
-1.53513992
0.25658223
1.61298597
-0.64751685
0.92521805
1.58562398
1.87838042
-1.04790330
-1.20895922
-0.18389088
1.33389795
1.14709175
0.04523512
-1.10379481
-2.58324671
0.73630667
-1.07131195
-0.72378510
0.16425319
0.83891153
0.74403638
1.05280352
0.11166946
-0.60595685
1.42669845
0.25371307
1.05366504
0.28803840
0.02055111
0.64090002
-1.85983348
-0.01696892
-1.40987194
0.32193047
2.03181076
0.75773019
-0.96104562
-0.59211206
1.00133610
0.11419756
-0.75413710
0.17456801
0.49737749
0.21547672
-0.16824171
-0.81581599
0.39279667
1.26808453
-1.41434920
-0.46273288
-0.97113317
0.64917570
0.34712765
-0.94647896
-0.60788393
0.13968086
0.11631567
-1.06787944
1.21259940
0.23092909
1.75483692
0.78630716
-0.12483758
-0.76492167
-0.29539359
1.36287367
0.54382682
0.65016681
-1.53483844
0.66820210
0.70771623
-1.49430382
0.98614335
1.13062954
-1.19053328
-0.22128896
0.22126882
-0.64597946
0.78338385
-1.04143238
-1.21039164
0.22641274
1.39569306
0.27968490
0.16330211
0.02698239
-0.88872933
0.53193760
-0.58683091
-1.29240799
-1.89093554
1.72735918
-0.22146080
-0.21623078
0.25418624
-1.40526032
-1.35964990
0.82986128
1.90671086
-0.58454883
0.05115774
0.75746202
0.45556971
0.34830523
2.66010475
-1.22392511
-0.54757822
-0.11472786
-1.04075587
1.09076869
-0.83489829
-0.54577541
-2.74376631
-1.02299273
0.27528530
-0.16606355
0.78458440
-0.73349994
-0.14013667
-0.04671119
-0.86796224
0.84785849
0.94289976
-1.57614303
-2.91235805
0.51989466
-1.14311862
1.05325913
0.63889855
-0.08010463
0.21076654
1.95427370
-0.26252726
0.69217336
-0.02171506
-1.13641286
1.41228414
-1.60429096
1.52849233
-1.72402048
-0.93638760
1.66451049
2.28025246
-1.14636397
1.60163534
1.14529526
-0.87098700
-1.34949541
-0.17349046
0.53688174
-0.54804134
0.33042231
-0.81468803
0.80854392
-0.78368115
-0.64733016
0.01177979
0.99869269
0.72814512
0.94409573
-0.34957129
-0.47324768
0.99650514
-2.00915456
-0.59574056
0.89717227
0.48497564
1.71567738
-0.27469161
0.00810022
-0.11654685
0.19423380
1.16011667
-1.00838208
-1.65598774
1.02358258
1.41944897
-0.17686529
-0.67554241
-0.09437042
0.06719634
0.88666683
0.47299147
-1.81471848
0.64907718
0.44445947
-0.50708467
-0.43295372
1.44431150
0.20424065
-1.02418470
0.06207952
-1.29808879
1.55125761
-1.31476557
0.89152402
-0.54561067
-1.00805187
1.91959536
-0.58090335
-0.57392049
-0.35600793
-0.64506507
-0.88885826
1.07099557
0.00078989
0.50457817
0.72282940
-0.01757869
0.84734941
0.34755340
1.14002776
0.40366644
1.46645021
1.36539197
1.68527496
-0.08549929
-1.33851254
-0.31636006
-0.03858662
0.32725748
-0.46231124
0.33310664
0.89460915
-0.35769272
1.69736660
2.24947286
0.52620214
-0.02606040
0.38941863
-0.03685095
-0.25559315
-1.60834455
-1.95843554
-0.16054444
-1.66108894
1.18459046
-0.90486991
0.85796613
0.26061043
1.33186293
0.45233932
-1.27539229
-0.17439094
-1.21815681
-0.28349525
-0.53897154
-0.21258420
0.21196924
-1.38181615
-0.61165559
0.19625039
-1.38290226
0.80702955
1.25799572
-1.31910288
0.91046256
-0.52903718
-0.40400574
1.07493091
-0.98204643
-0.13133065
-0.82081079
0.74774003
0.68668890
0.28237516
0.13071463
-1.53634608
-1.71670246
-0.05900418
0.67856455
-1.22654855
0.02087240
-1.26311541
0.81607324
-0.42254844
0.32123268
-2.39933038
-1.20961571
0.70712548
-0.52309763
1.30750620
0.08770929
0.20439109
-0.45444265
-0.15646735
0.81480420
0.63937688
-0.98250669
-0.33309957
-0.92235422
-0.44086891
-1.40395391
-0.51800621
0.98930818
-0.09776483
-1.75716627
0.62627757
0.89751673
-1.00894141
0.16577543
-0.43840978
-1.65900159
-0.51372814
-0.54842049
-0.56911284
2.08199453
-3.27520132
0.68325967
0.48049563
1.15230834
0.11886224
-1.22933209
-0.28017944
-1.48487687
0.16522259
-0.00920105
-2.53578091
1.96016145
-0.00135485
1.91466749
-0.07854018
0.11669658
0.83632469
0.64362001
-0.36202419
-0.13480526
1.33345437
-0.48174611
0.26844916
-0.22429153
0.36324006
-0.12772481
-0.53503132
0.35058746
-0.42318478
-0.58491200
-0.22443463
-2.41134405
2.05315757
-0.85202074
-1.09791625
0.67040372
0.82800126
-1.27634263
-2.05882215
-2.24955630
-0.72926748
-0.35754758
-0.34199211
-2.16629004
0.52501976
0.43254915
0.27711695
-0.93697995
0.66658509
-0.88348949
-0.46426192
0.71982479
1.66194785
-0.81604171
0.37116107
0.70309794
-0.18370408
-1.16818929
0.34384233
0.63688767
0.41642702
0.03141511
0.34634891
0.45290163
-0.05693604
-0.64103019
-1.37613666
-0.14983013
-0.96080238
-0.05454209
0.83105916
0.63230509
-1.35012281
-0.04231780
-0.74429530
2.22377038
0.14787064
0.43616715
0.99099797
0.26092961
-0.40748465
-0.51542366
-0.11240387
1.31987524
1.09978235
-1.36069798
0.95756572
-1.17527282
-0.12067136
1.00528562
1.87789536
1.05608547
-0.35585138
-0.63900441
0.71246308
-0.22744513
-0.27314672
-0.03756033
1.13111460
1.51112425
-0.90219551
1.03195143
0.68671966
-0.55529165
-0.25199863
-1.68128240
0.20038457
-0.46054763
-0.32178509
0.28676248
-1.06566453
1.20683277
1.90225446
2.28916216
0.80702883
-1.72203267
-0.02105387
-1.07603669
-1.13839829
-1.57412732
0.37576583
-0.03923172
-0.65484512
-1.11622977
-1.11027753
-0.61924177
-0.33831814
0.82886070
-2.66240025
0.54619396
-0.04413291
-0.90101391
-0.37919021
-0.76766193
0.21551834
-0.21686503
0.90286767
-1.00839746
-0.89877689
1.25069666
0.44881791
-1.33492625
-0.83693796
0.40134615
0.01004372
0.82681924
-1.59790206
-0.28751108
1.27539921
-0.21817125
-0.61649430
0.19396687
1.49092758
-0.08313653
0.40709552
-0.32010388
0.15273376
-0.30536884
-0.40298122
-0.11672501
-1.15804708
0.88754642
0.87955338
1.30297041
0.13431032
-0.16329478
-1.87160730
-1.49113071
-2.45157623
-0.33198851
0.40010208
-1.46310568
0.45151794
-0.21632792
-0.60895491
0.60327625
0.78012866
-1.08875108
0.75694072
1.41231883
-1.25857985
0.04973608
-1.87470186
-0.11488578
-1.04749453
-1.90636945
0.33432105
0.45021096
0.94700193
-1.73060453
2.53357649
1.28720939
-0.45321402
-1.28320682
-0.45950383
-1.00600612
0.08916038
-0.28314513
0.18827736
-0.32862797
-0.60185522
-2.50185966
-0.99683887
1.51964176
-1.67853260
2.17749071
0.59205419
-1.21507919
0.66945648
0.26417214
-0.08671837
-0.36152747
0.35270178
0.32276401
-1.91750383
-0.32863933
-0.52649164
0.13768290
0.11893601
1.97277474
-0.38960224
0.33081758
-0.59084779
-0.02973543
-0.09710748
-2.15767908
0.38415292
1.09212959
0.81763178
-1.07437861
-1.45294178
-1.93899643
-0.46767080
0.35277826
0.05248090
0.95502442
0.96246803
0.05312031
2.84173512
0.70770991
-0.98034364
1.46826255
0.03637977
1.56317580
-1.25365555
-0.16596511
0.37178743
0.16187592
-0.73868036
-1.09303224
-0.00150275
-2.25002074
0.42323127
0.97256362
-2.61890602
0.61677784
1.57936251
-0.55534422
-1.16746342
-0.30171132
1.03611219
0.33003131
0.65614086
0.31384873
0.47035602
-2.01468945
-0.14799812
-1.33138573
-0.15700148
0.90319663
0.22620428
0.67930573
0.03775997
0.17346707
1.17514563
0.15984237
-0.71548390
0.27462327
0.24932754
-0.40115574
-0.02816204
0.48763621
0.85847759
-0.29606354
-0.24398437
-1.13161850
0.13752083
-1.23423910
0.03879202
-0.58505207
0.30174246
0.52027309
-0.02404835
-0.98845500
1.04334247
2.38327241
0.00130376
1.91850650
-2.09504700
2.29337263
1.16499770
1.43951643
-0.31581807
0.60926992
-0.61797869
-1.48635435
-1.13146758
-0.67064905
1.10786140
0.52422905
-0.01642572
0.26868558
-0.40047756
-0.83559638
0.83928549
1.39451694
-0.92102420
-0.98561561
0.48554420
-0.93064117
-0.71513462
-0.48489523
-0.51583153
0.42056257
-0.25159904
0.76574188
1.69761121
0.83379477
-1.10952234
-0.41656813
-0.29338455
2.32761526
-0.01234782
1.56827927
0.10743198
-0.43827254
0.24566928
-1.71082962
0.15314932
-1.95709240
-2.15659356
0.87848717
0.62191939
0.16860987
-0.84969348
0.35585457
1.89266014
-0.16207187
-0.54432011
1.65677762
-0.41401252
-1.56333625
0.45732075
-0.08199380
0.01051896
-1.30831313
-0.21471013
-0.53717577
-0.29200265
-1.24017560
-0.55234414
-0.29844311
0.27870578
0.16876671
2.02897954
0.29803228
0.44364759
0.02079799
-0.23298688
-0.70049953
0.55880010
-1.01611269
1.85612345
-1.86249506
-0.26647180
0.12135798
-1.12322509
0.10630333
0.32418016
0.78789127
0.02791145
-1.31119430
0.54167944
-0.06822378
-0.48404849
-1.39812148
-1.03893805
0.02217788
-0.32200417
0.27965954
0.25358298
1.99907243
1.58171928
0.03538976
-1.73223984
1.52960300
-1.31204355
0.97225159
-0.63631874
0.49378341
-0.13927209
-0.83392459
0.33930334
-0.75545084
0.49864098
-1.73599446
-1.86101127
-0.99792087
-1.62965894
0.89159435
-1.47164762
0.70730305
-0.27260187
-1.84802663
0.72718614
-0.43780935
-0.55642021
-1.23418665
0.45194682
-0.46213329
0.08969035
0.55810267
-1.13901103
-0.54883987
-1.11760294
-1.41408026
-1.14562845
-1.54146469
-0.05450073
0.29349008
-0.58462286
1.55952668
0.16539744
-0.07729346
0.75361609
0.49298277
-0.86478138
-0.62063718
0.19204754
-1.04752314
0.65186453
-1.64593554
0.28218132
-0.18657058
0.60659850
-0.33188146
-1.10908675
-1.55731821
0.70612007
-0.77380216
0.57240701
-0.22090018
0.08291812
0.12980369
1.30108309
0.61376029
-0.46038389
-2.88470316
-0.60998446
-0.55960023
-1.31175089
0.35584778
-1.94293272
2.67710686
1.17846763
-0.66043997
1.10766923
-0.09203413
-1.00092292
0.10846075
-0.09355626
0.27685484
-0.56009454
-1.25440741
-0.02863944
-0.49493450
-0.28013480
-0.27728859
0.99499446
0.59365255
-0.55746239
0.55223715
0.69737887
0.46346748
-0.62713861
-0.40116200
-0.69427782
0.15472947
0.91822827
-0.72908312
-0.89964712
2.54712868
0.31645086
-0.06824567
-0.35157201
0.52881098
-1.47581935
0.41198274
0.27158144
0.76466733
2.06843519
-1.36072767
-0.39870805
-0.86193544
-0.07144774
0.18034920
-1.39506280
0.41172120
-1.63157070
-0.88856310
0.00519597
0.21044719
-0.51405364
2.03777170
1.69099927
1.14416742
-0.03180181
0.94420105
0.73935908
0.12842746
0.29609701
1.83750725
-1.12550676
-0.19331016
0.08909807
-1.91646349
-0.17192116
0.21283166
1.00322163
1.58963299
-0.79373926
-0.34758151
0.02224298
-1.69246340
0.16116574
1.33598566
1.23919582
0.16409150
1.46769345
1.10287416
1.17699373
-1.36335206
-0.47130749
0.15388094
-0.91446471
-0.43680120
-0.37681603
0.05575857
0.99262267
0.29762849
0.62204653
1.37195182
1.32519877
-0.68522292
-0.74662352
0.84789962
-0.56860012
-0.37864959
1.86431801
1.23347616
0.33221033
-2.25466561
-2.15182877
0.42945030
0.79848850
-1.11268246
-1.49033296
0.72107589
0.34256002
-0.42014217
1.93957484
0.62920147
-0.71239513
0.78307563
0.55369228
-1.01275706
0.27612025
0.87852204
-1.03071177
1.06186628
-0.48940995
0.80786067
0.76650733
0.20868297
0.98939162
1.79556108
0.63584810
1.90517664
0.71545732
-2.25373197
1.38928628
1.32837784
0.13711378
-0.66661829
-0.93383950
-0.91755116
0.54693234
1.30254793
0.98903739
-0.55391192
1.23824787
0.59353739
1.09702051
0.79914695
-0.88471615
-0.23219091
-0.17057495
0.08800052
0.81342846
0.15718265
0.70220208
-1.06488442
0.79169804
0.47161570
-0.66630042
-1.71126783
0.66682094
-1.42443085
-0.89203858
0.65152794
1.88041925
0.92559302
0.01898313
0.44010669
0.81444329
0.06266882
-0.73989749
0.91975653
1.59506023
-0.70812285
-1.00303125
-1.37898505
0.71533722
0.94583750
-0.13249959
0.47523272
0.48389003
-0.38289914
1.33397269
-1.30533135
1.25416470
0.85898191
-0.48282933
-1.71078873
-1.35864210
-1.39623260
-0.40674478
-1.24950445
1.51161265
-1.43836677
-1.00033224
0.84941208
0.87986308
-0.77208912
0.45121777
-0.48527956
-0.13957931
0.59157962
0.69489187
-0.57836974
-1.59249306
0.73589313
-0.03397432
-0.06235733
-0.68777966
-1.55486119
0.68173444
0.30067256
0.52604288
0.18952505
0.05740243
-1.72538793
-1.22019815
0.86697727
-0.66501093
-1.39877999
-0.14303000
0.55545616
-0.00295955
0.69837266
0.24353482
-0.55667782
0.31437847
-0.21704350
0.00092460
1.86109161
0.77262539
0.07891567
1.48731077
0.04184655
0.84468460
-0.36468896
2.23962688
-0.16438055
-0.34823912
-0.31201857
-1.49383569
-1.37908590
-1.28874099
-0.29715478
0.71095932
-0.82446533
-0.90517128
0.14637084
-1.22297347
0.07074504
-0.75162458
-0.65188211
1.27156091
-1.92132020
-0.87335187
-1.52172184
-0.14537394
0.48910666
-1.49230993
1.54861748
0.51251614
-0.01808103
1.16569984
1.27245748
-0.03925467
1.43578243
0.51633048
0.34339565
-0.47522241
-0.82111853
0.11694225
-0.54697323
-0.87805724
0.89743394
-0.00973580
1.18012333
-0.06056388
-0.65618241
-0.53142905
-0.45812070
-0.50747406
-0.36501136
0.12589327
1.57637727
0.84638542
-0.69362319
0.28135476
-0.89521730
1.02263093
0.58450747
1.00446260
0.24644448
-0.57838076
0.99218732
-0.04022016
-0.12380632
2.51221204
-2.04895377
0.06354000
-0.16223449
1.40000844
0.06196296
-0.50808251
0.89152062
0.20128587
0.05869306
1.06623781
-0.03793801
1.82330120
0.02442938
0.98619944
-1.29130948
-0.22277690
1.91228974
-1.23476136
0.67214411
-0.38831612
0.17793013
0.22596401
-0.16709858
-0.51536274
-0.57043701
0.18596517
-0.20014629
1.87647486
0.25534984
-0.84899700
0.12402153
-1.13074470
-1.01100743
0.20333484
1.82844114
-0.27264634
1.25950253
-1.17882776
-0.15683644
0.51681256
0.17239000
-1.20808661
0.61781633
-0.64318883
0.31319484
1.27737463
2.17612123
-0.96404374
-1.53780973
-1.03453946
1.41803408
0.06121732
0.58880126
0.34836632
-0.14378583
-1.88160706
-0.41496262
-1.39667475
0.25868398
-1.33423018
0.40154737
-0.92016923
-1.30153573
0.16636650
-0.56503654
-1.39518178
1.03812802
0.62221426
-1.03972805
-0.14497335
-2.36410975
1.43524671
0.58063298
0.03567173
-0.20395377
2.54426384
-0.47865707
-1.61341512
-1.36910081
1.39008248
0.34333920
0.13494678
-1.20227981
1.20130587
-2.03869915
0.04736701
0.46326184
0.25218195
1.54771125
-0.60736799
-1.16051388
-0.17704593
-0.79168385
-0.67209625
-0.64857918
0.54922903
1.04910231
0.44119599
-0.06477873
-1.43950522
1.18381047
-1.56704843
-0.42924431
-1.44005036
0.32706520
-0.17531203
-0.34707582
0.71115434
-0.53650844
0.32520965
-1.32022095
0.11427398
0.36196601
-1.84505904
-1.02386284
0.09396796
0.00305627
-0.61297601
0.54036289
0.38901290
0.19923456
-0.28421843
1.85516119
-0.63866627
-0.63380045
0.02685853
1.23821533
1.47776568
-0.05372895
-1.52208066
-2.19139981
-1.08554280
-1.83364964
0.16479859
-1.98576295
0.11183894
0.34831262
-0.20174100
-0.52876884
0.66123486
1.12266111
-1.75817871
-0.58850664
-0.91589880
2.28983974
0.59143996
0.30316234
-0.33384815
-0.48480713
0.81846929
1.29379547
0.70828211
0.45866475
-1.21789563
0.69089919
0.68503362
-2.12852335
-1.29363978
-0.11747563
2.34910250
1.54507136
0.00247089
0.92975008
1.23336661
0.82819772
1.55210030
0.83635050
1.20447028
-1.41506839
-0.29059121
-0.27311489
-0.41556063
0.56865603
1.60089743
0.62509078
1.89874351
0.39897850
1.55779219
1.99511755
-0.77983844
0.02245167
-0.73601282
-1.15880001
0.48005676
-0.90509444
0.90008497
0.67640811
-0.91425991
-2.01756382
-1.84063733
0.28095737
1.04604936
-1.50297439
1.20783043
1.04373527
-1.50242376
-0.03237469
0.23522817
-1.53647876
1.92927444
-0.99347740
0.19833212
0.97390789
0.93761265
0.92248982
0.19760302
-0.54373538
-0.78413492
0.14658678
0.14390141
0.34583297
0.54352313
1.79872465
-2.16420889
0.22362870
0.17144448
0.97235501
0.56276548
-0.49510282
0.09111933
1.07072914
1.12813866
-0.75528550
0.09584212
0.20075038
-0.65975261
1.32219851
1.40468633
1.35811841
-0.39400238
0.39328805
1.19208848
0.85541797
-0.37164482
-0.34844059
0.77508789
-1.03260911
-0.75999296
1.63889527
-0.50953323
0.29844943
-0.06922065
-0.91059548
0.10147332
0.13454375
-0.83966351
-1.87610960
1.66657782
1.51940191
0.81222749
0.31474727
2.26740551
0.23644049
0.14650601
-2.92136168
-1.75956166
1.80090654
1.11942136
-0.72849965
0.59439659
0.16662329
1.43303263
1.62406099
1.80918646
1.51872134
-0.27767706
0.28199273
-0.65773290
1.08573294
-0.81981474
-0.92311394
-0.53280658
0.13729453
0.38173583
0.78254992
-0.09260534
0.44247144
-0.42446023
-0.40602773
-0.52523422
1.93446088
1.66842031
0.36973438
1.31984735
0.66328502
0.23239200
-0.63103664
-1.98369944
-1.45546579
-1.00795496
0.26000488
-0.92392045
-0.35089317
0.62233502
-1.18575108
-0.48144537
1.22880721
1.71521366
-0.19488408
-1.25089848
0.06136416
-0.01475980
-0.62726283
-1.24715447
-0.68086928
0.97922790
-0.29440916
-0.40006065
-0.14581992
-1.45224130
-1.32035089
0.88713938
0.92546058
1.82057774
-0.30539200
0.22703613
-1.16429830
-0.10303685
0.65345174
1.59585690
-0.87693620
0.10764260
0.57156277
-1.33438766
-1.03812587
-0.33296257
0.21417639
0.30578256
1.37531054
0.33830121
1.35764825
-0.00615229
-0.05371061
-0.09935457
1.60981131
-0.10747865
-0.94900811
0.27619034
1.44741368
0.03369887
1.13398075
0.61177206
1.01056063
-1.74669147
-0.81440228
0.33706662
0.60438800
-0.12377156
0.44670543
0.54686159
-0.69811207
-1.04075491
-1.04494357
-0.29343891
-1.24603081
0.46952924
0.01132852
0.24455345
0.96200252
0.63468391
-0.84851605
-0.71545428
0.59543341
0.57169801
-1.64843440
0.73857182
-0.96276093
-1.98256898
0.57613856
-1.41921842
0.66074950
-0.18248571
-1.06730437
-1.01181054
0.14922751
0.26140746
1.91368318
0.36030555
1.22530627
0.12208824
0.16183700
-1.15250254
-0.41967028
-1.42484081
-0.91058892
0.61712849
0.85924220
-0.31449628
-0.21553019
-1.62884915
0.40041840
1.13443518
1.19155669
-0.42300493
-0.23602989
-0.12704571
-0.69506073
1.41946244
0.01586192
-1.60313976
-0.14527211
1.44635832
0.22378689
-0.35984305
-1.46432018
-0.40113178
0.95591015
1.36713600
0.33118826
0.48585781
0.38928947
0.84543109
0.09293664
1.23787653
0.39229301
-0.32235879
0.00093883
-0.57850170
-0.01222874
-0.39580211
-1.34266233
-2.10394979
0.42006400
0.63372993
-1.67256868
0.05379231
2.13837337
0.18007392
0.19033949
0.38312882
-1.05761123
1.72407138
0.01363553
1.03512812
-1.60377324
1.37737393
1.58104420
-1.31825149
0.70700544
0.48275980
0.97407705
-1.29249632
0.44302294
0.35309073
0.71248579
1.06977105
-0.87470448
0.54817283
0.19494349
-0.60526675
0.92619419
1.36984825
0.78571773
0.72425503
0.97831970
-0.67394310
0.87088138
-1.57750201
0.05506927
-0.84859490
-0.44218966
-2.19440246
0.59603858
-0.50882810
1.40602028
-0.25149000
-0.49734688
-2.58361197
0.02258330
0.54832560
2.23638415
0.92854160
0.65597683
-0.48994336
-1.63823748
-0.62209803
0.15175539
-0.03202096
0.48849893
-2.69628954
-1.19045448
-0.47217679
-0.19087692
0.07973324
-0.88141680
1.77233410
-0.83482105
0.81809109
-1.31822169
-0.00921495
0.84508640
0.49576768
0.69257444
-0.10723378
0.90737426
-1.00942981
-0.11459242
0.71933997
0.79334033
-0.31325626
-0.90819436
-0.36569554
-1.06680751
0.44098145
-0.56677741
0.31980646
-1.21006072
-1.75663948
-0.93954480
-0.85124922
0.20454243
-0.04578024
1.14797008
-0.58428067
-0.56718427
-0.13402650
-0.72359139
-0.97644657
0.54451621
-0.46244973
0.09306493
1.60822797
0.46491715
1.21553779
-0.32645527
0.33154273
0.31588063
0.26336634
0.15369886
0.04882829
-2.09575367
0.83793455
-0.51342911
0.38596869
1.05870306
-1.00271380
0.05075873
0.51700073
-0.74391329
1.52814782
0.17195876
-0.68768722
0.22450209
1.89360178
0.79788482
-0.84440041
-1.38854837
-0.35026118
0.52744073
-0.54461652
-0.07357819
-0.63259774
-1.71139312
-0.52442098
0.53520119
1.01367462
-2.17283726
-0.68314278
0.40009999
0.64323109
0.51842690
0.74832475
-1.72465932
-0.67314154
-0.37095150
-0.73378944
-0.30747831
0.27903420
0.17506187
-0.72510564
1.82110393
-0.95448315
0.75257367
-1.08185315
0.08478047
-0.96093363
-0.01907891
0.68010533
-0.14294569
1.48970830
0.64892703
-1.26898813
0.02347049
-1.37922418
0.14808224
0.04752024
1.12363100
0.24753396
-0.85056555
0.79264605
-1.00472116
2.40426755
0.00165364
0.35878745
-0.11069084
-0.16176997
1.42834926
-0.16461024
0.59783930
0.24653569
1.21653688
-1.10414469
-0.64273441
0.89544761
-0.06881093
-0.44346404
1.26431334
-1.01161146
-0.11117507
-0.74838084
2.32392335
-0.71303630
-0.78000224
1.59918213
1.08139515
-0.03063360
1.05608547
0.37619418
-0.47459930
0.32910591
0.39980716
-0.60878003
0.63369936
0.41065717
