0011101101101100
0011100110100011
0011011110111110
0011011000010111
1011110100001010
0010001100011011
0011011101100011
0010111110010001
1011111101110110
0011110010001111
1011010001101100
0010101100100101
0011000101000111
1011110010100110
1011110100111101
0001111110111100
0011111011110101
1011110000001010
0011101111111100
1011100011001110
1011101101011111
0011100011111000
1011110100111000
1010110110010110
1011101000101101
0011101010010110
0010110000010011
0011101001110110
0011011111011110
1011010011110010
0011110000110000
1011111100011010
1011100100001010
0010101000011001
0011111110100000
0011101100100010
1011101001110110
0011111001101100
0010110110001001
1100001000001000
1011011000010001
0011101100010100
1010011000011001
0011100000111111
0011101010000011
0011110000111111
1011110100011010
0011011001010111
1011011011111010
1011110001111010
0011011000010110
0011010010100011
0011110100101100
0011110010001111
0011010111111000
0011101010010110
0011101001001111
1011100000110000
1011110010101111
0011100010011100
1011111101100101
0011011011101110
1011110000100110
1011011011110001
1010111100110000
1011100010001011
1011000000000001
0011011111010010
1011110010010100
1011101100010111
0100000101001101
1011101100100001
0011100100000010
0011000100001110
1011100001111011
0011110100101100
1011000110110101
0011101010101001
1011101011001100
1011000110111000
0011111100101100
0011100000001101
0011111010111111
1010110011001000
1011100100000100
0011001100101111
0011110000101100
0011111000010110
0011100000011101
0011101001010111
0011101110101000
1100000011100110
1100000100111111
0011000100101000
1011010011100111
1011101000000111
1011010010011111
1011110000110011
0010110100001100
0011000011111010
0010110001101001
1011011011001111
1011100010111111
1011101100101110
0011011010111010
1011010010101011
1011110001000101
0011010111000000
1011100000001111
0011000100011001
0011110101101110
0011100001010010
0011010010001000
0011100100010000
0011110001000011
0011001101111110
0011010001001111
0011011100001101
0011100111111000
0011101101100010
0011011101001001
1011111110001011
1011001111100001
1011101101101110
1010111111010001
0011010000000011
1100000001000010
1011100100001001
0011111100011000
1011101111101001
0011100100101010
1010101110110110
0011101101110111
0011101010000000
0011000101011011
1011111110001101
0011110100001111
1011110010000010
1011111001110110
0011010100110101
0011101100110101
1011100100110010
0011010101000100
0100000010011010
1011000111011100
1011110010101111
1011100110100000
1011111001001101
0011010100010010
0011100101001101
0011010111101110
0011100001100011
1011110101001101
0011010011100111
0011110101010110
0011111010110111
1011110100011101
0011110010110101
0011110011101111
0011111000000001
1011100100110010
1011100011100111
0011011001111011
1011110010111110
0011110110110110
0011100101100100
1011000000001101
0011110110001010
0010110001011011
0011101100100011
0011111001010100
0011010110111011
1011111000010001
1011100000010110
0011100111011011
0011101100111010
0011011000011010
0011101101011011
1011011111010100
0011111100110000
0011011010100111
0011111000000101
0011100011110100
1011100011001010
0011010100101010
1011010110011111
0010100100101101
1011111000100110
1011001010111001
0011111000001101
0011001011101100
0011000111011100
0011011111111100
1011000001000011
0010101000011000
0011011001010010
1011100101001111
0100000001011010
1011001010100010
1011110111100001
1011011101001100
0011110110000111
0011010011000100
0011100000101101
1011010111001000
1011001001010010
1011100010101110
0011111000100111
0011111111100000
0011100000111111
0011100111001111
0011010001110001
1011010100001110
1011100110011101
0011110001000001
0011010111001100
1011010010000010
1011100101011010
1011110001001101
0011110100100001
1010110000110101
1011011100001000
1011110010101111
0011111100011110
1010100001101000
0011100111100100
0011110111100111
0011100100010111
0011010000101101
0011100110001100
0011110000001010
0011110011110010
0011011100101000
0011110001101101
0011110011011001
0011011000101011
1011010010101011
0011110001011010
1011111111110000
0011011110111111
0100000000100101
0010101100001101
1011111000000001
1011110100011111
0011010111011111
1010111000000101
0011110101011001
1010111111010101
0010100001110111
1011101101000000
0011001110011101
0011010000000101
0011110101001001
1011110110011011
1011101000100101
1011110001000001
1010100010001111
0011010101111101
1011001110001010
0011011111000001
1011110111000011
0011011011110011
0100000000001001
0010111001011110
0010101000011011
1011110000011111
1011100000111000
0011101100011100
1011111000000110
1011110000011110
0011101100100110
1011111000011010
0011001100011011
1011100011100111
0011101111000010
0011111010001011
0011110001000100
0010111101001000
1011000110000000
0011111001001110
0011000101001101
0011110100100000
0011111110001000
1010011000100101
0011011001111111
0011100010000101
1011110011100000
0011100011011100
0011001110100011
0011110001111010
0011101001000100
1011010111111111
0011011101101000
1011000011011001
1011010000011011
0011101011010110
1011010100100110
1011110110111100
1011011100000011
1011100010011101
0011111111111000
0011101011010001
0100000001011101
1011010000000010
1011110010010101
1011100110011100
1011111000111101
1011011010011001
1011000100110011
1011000100011111
1011111000100110
1011110001000010
0011010001010010
0010101000110101
1010111110100001
0011100010110010
1011101000000100
0010111011111001
1011101101111000
0011101010110011
1011111000100111
0010111100101000
0011110111110010
0011011011010001
0011010000111010
1011101010101101
0011111001110100
1011110000101100
1011010010010001
1011001010100001
0011101111010010
0011100101000111
1010110101011110
1010111001001010
0011100100101001
1011100001100110
0100000010000110
0011011000101111
0100000000011001
0011100011101111
1011110101000001
0011100010101101
0011101011100011
1011010111001111
1100000001101010
0011010010110000
0011100111001010
0010000111111001
0011001100010000
0011100001010000
1010001101000010
0011011111010001
1011110110001111
1011101111101101
0011110101100111
0011010001110100
1011110001010110
0011110000011001
1011101101100111
1100000010101000
0011010111111100
0010101000111110
0011110100110111
1011001001001100
1011110000110011
1011010101011011
0011011011010001
1011100101011010
0011000110111110
1011011001100110
0011001111101011
1011111001101001
1010111010110101
0011100001011011
0011101100101000
0010110000000010
1011110000001000
1011110001110111
0011011001010100
1011101001000110
1011110001101101
0011101101010101
1011100010011111
0011110011101010
1011001000000110
0011100101111110
0011010111101001
0100001010011001
0100000000001000
0011111101110000
0011110000101000
0011101110011100
0011010101010111
1011110100101011
0011000011101101
0011110100101000
1011010111011011
0011100000101110
1011000111100101
1011101000100111
1011110111000110
0011010110110010
1011111010011110
1011110111001111
0010110111000110
0011011001010101
0011010000111110
1010000001100110
0011111100101011
0011011010011001
0011000101110001
1011010001010000
0011000100101110
0011110001001101
0011110110111010
0011110110011000
1011100011100100
1011001111000000
0011110010100110
1011110000110111
1011100101000010
0010111111110110
1011110110101010
0011110000000110
1010100011011011
0011110000101110
0011100000000001
1011010001001011
1011101010111111
1011010010110110
1011100101011110
0011101111000000
1011001000100110
1011111111111101
0011011001111101
0011010111110100
0011010001100010
0011011001100100
1011100111010001
1011110001101010
0011101110101100
0011101111000001
0011101000110111
0011100010010000
0011100111011111
0011110011000001
0011110001010001
1011110100011111
0011011010001110
1010111110111111
1011110001111101
0011110111010000
0011100110011101
0011110010010100
1011101100000011
1011100101011110
0010111000101101
0011010101110010
0011101010001010
0011110011011000
1011101000110101
0011110111000110
0010110001001110
1011110000010000
1010111111011000
1010100001101001
1011011111001001
1010111011010101
0011100100100100
1011001011110010
1011100001011000
0011110101101110
0011100010110101
0011101011011101
0010100101010101
0011110001101100
0011110001010101
0011100110011101
1010110011101100
1011110010100011
1011110110100100
1011010010111010
1011100010010111
0011010000000010
0011001001011110
1011110100011110
1011110111110101
0010110100100110
0011100100000001
1011001010111100
1011000001001101
1011110100010101
0011001110100110
1011000100101000
0010100000011001
0011010101001001
1011111100010101
1011101101011101
1011101110100011
1011100001000010
0010111110011111
0011011011110011
1011111010100010
1011101110100010
1010011100110100
0011110000111100
1011101101110010
0011001010010000
0011011011010001
0011101101000001
1011010011001001
1011100010110010
0011100111001100
1011010010101100
1010000000111100
0011000010011111
1100000001101000
0011110011011111
0011110100100101
0011110000011010
1100000011000101
1011010101110001
0011110011101101
0011110101001110
1011101010101100
1011001110000011
1011111000011011
1011001100011011
0011100101011110
1011110110110000
0011110011001111
0011011101011110
0100000011010110
0011001110000001
0011110110110010
0011000111011001
1011011010100101
1011110011110100
0011100111101100
1011100111000110
1010000101010101
1011111000010000
0011010110111111
1011110111110101
1011111010101001
1011100001000010
0011110011111100
0011100001110000
0011101001101101
1011101111000100
1010110101101001
0011100000011011
0011100011110101
1010100000010110
0011111110100011
1011100101001010
0011100100100011
0011110100100100
1011000001110110
1011100100101010
0011100011010101
1011100100011001
0011100001100100
0011011000011000
1011010000000010
1011100101011000
1011110000100000
1011111000111100
1010111101011100
0011101001101010
0011110000111111
0011110110101000
1100001000001011
1011010001101110
0011110100011101
1011000000101011
1011101101000011
1011110111000111
1011011100100100
1011101101101110
0011010001011101
1011011100101010
0011110101010110
0011011011001101
1011110000001001
0010100010110001
0011101001110011
0011000000010010
1011010011101101
1010100101001000
0011100011100101
0011000001101111
0011100001011011
1011101110100100
0011010111010100
1011101101011001
1011101100111010
1011111000100011
0011110001111001
0011001010000100
1010110110001100
1011110111000100
0011011111000000
1011001100100011
1011100111011000
0011001001111010
0100000100001011
0011010001111011
1011100000010100
0011110110110000
1011111000001011
1011010111101111
0011110001110100
1011110000011111
0011110001110100
0011110000100100
0011111000001110
1011001110110011
0011010111010100
0011110001010101
0011011000000010
0001100011100001
0011100001000000
0011110010011001
0011000011001110
1010011101110011
0011011011100011
0011010000011011
1011100000111111
0011100000000011
1011100000011000
1011100100010001
1011100011111011
0011100100000011
0011101101110101
0011101011001011
1011101111100110
0011111100000011
0011110100110101
0011011011110111
0011100101000000
0010100111011001
1011101100101100
1100000010111110
0011100110001000
1011011101011101
1011110110001111
0011110011011001
1011101101111101
1011111001010100
0011101100100111
1011101111001011
1011011100001000
0011100111111010
0011011111000001
1011111000101000
1011010000101011
0011011001001111
1011101110011110
0011100100010011
0011110000000110
0011101100010110
1011011111001001
0011011101000110
1011101101010001
1010111101000010
0011000010000101
0011100110111001
0011100110001010
0011000100110011
1011101100101000
1011100101101110
0011001111000011
0011100101011001
1011000101110100
0100001000011010
0011011010000110
1100000001000010
0011001001110000
1100000101100001
1011111000110001
0011011010110110
1010000000100011
0011100110011101
1011110101011001
0011101100000001
0011110100110010
1011111101001101
0011010010011101
0011010010011111
0011101000101001
1011110101000101
1011100101010011
1011100011001111
0011100101101100
1011110011000010
1011110010110100
1011111111010100
1011011000001110
0011010001010110
1011110010011011
0011000010001010
0011100001110011
1011111001001000
0011101001111011
0011000011000111
0011110010101011
0011101000001001
1100000111111110
0011011100111111
1011100101101010
0011100001001000
0011001011100011
0011110001100011
0010100111000000
1011110001001110
0011101101101000
0010111011010011
1100000011001100
0011111111111111
1011110000001100
1010010010001010
0011000101101001
0010000101000111
0011110000110100
1011100011001110
0010110011011111
0011010000010000
1011010010010000
1011001010011111
1011100100110011
0011111010000001
1010101011110000
0011100000110010
0011111111101011
1011100110001011
0011110100000110
1011100100011000
0011010000111010
0011110100111000
1011100010001000
1011010011101100
1011100000110110
0011011001111101
0011101101111010
1011101100100111
0010111001111101
1011110011110001
1011011011010110
0011000111111111
0011010001010000
0011101001101011
0011011001101011
0011101010001011
0011111011111101
1011110100100010
1011111010101100
1010111001101010
1011011100010000
0011101101101101
0011100101000011
1011101111101101
0011011100110010
0001110001001100
1011001100011111
1011011100100100
1011100100011011
0011110001100101
1011011001111011
0011101000100110
1011101101000101
0011110001000101
0011010010011100
1011010000111001
1011110100111011
0011101101000000
1011001101101101
0011001000001011
1011010111000001
1010111110001110
1011100011011011
0011100111011100
1011100111000111
0011100000001110
0011011110010011
0011110111011110
1011001011001111
0011111110010101
1011001011011011
1011110011111111
1100000100010010
0011101110000001
0010100110110011
1011010001010100
0010110001100001
1011101100011011
0011100101110101
1011001101001000
1011110010110011
0100000000000101
0011010100101011
1011111011010000
0011001111001001
1011101010111011
0011110100001001
0011101011110010
1011110011111000
1010111011101100
0010110010011000
0011110111001000
1010111101110011
1011100000000011
0011110111110111
0011111011010010
1010110011001110
1011101000110011
0011011101000101
0011011100111000
0011110111111111
0011101111001101
1011100011011010
1011110010101100
1010111000111100
0011101110111111
0011100101111011
1011100110011100
0011010101100100
1011110111110111
1010110101010111
0100000010110101
0011010011000100
0011010110000000
0011010000111011
1011100101001111
0011010011010011
1010101101111011
1011010100010101
1011000100111110
1011110000111111
0010011000001000
1011001001101100
0011110101011111
1010111010010000
0011101001101000
1100000010100010
0100000010100101
1011110101001111
0011100110101010
1011110101010011
0011000100110110
0001100001000100
0011100010001011
1011100000011001
0011100100000001
0011010011001001
0011110011001110
0011110110100101
1011110010110101
1011001000001010
0011110001100000
1011100010100111
1011101101111111
1011000011010010
0011010101000100
0011000011111101
0011100101000101
1011010011110011
1011110000110000
0011101110101111
1011110100001000
1011110001100001
0011110111100010
0011110110110111
1011110000101110
1010110000011110
0011101101010110
1010110101101101
0011011000111000
0011100111110010
1011101111001101
1011110101010111
1011011000011000
1011101000111011
0011100111000000
0011100010000000
1011000011110101
0011010010111101
0011110110100111
0011101011100110
0011000111100100
1011101001010101
1100000000101010
0011000010000010
1011111001011111
0011011000110011
0011010010100110
0011110101000001
1011100111111101
0100000100100111
0011100011010111
1011110010001110
0011100001110011
0011011010110010
1011110100101010
1011110100001101
1011101000111010
1010111011100010
0011101111100100
0100000111001000
0011101011000100
0011101111001101
0011111110101001
0011100111011010
1011111001000000
0011010111101100
1010111011011001
1011100011001101
0010001000101001
0011011011010110
1011111110001101
0011110010111110
1100000011101111
0011101010111001
1011100001010111
1011010010110110
0011110101010010
0011100011011101
1011001101001011
0011010111110011
0011101101110010
0011101000101110
1011010100001000
0011100110001011
0011100001101101
1011100010010110
1011110010011101
0011100010100111
0011001111100010
0011110000001011
1011100001000001
1011101001011001
0011101010001111
1011100100110010
1010111011000101
0011100011010001
0011101111010011
0011110110010010
0011111010111110
0011110001111110
0011100000000010
0011111001110111
1011110101001001
0011011010001010
1011001100000110
1011100010111101
1011011001011100
1011111011110110
1011010001001000
1011110010111101
0011110001100100
1011101011100111
1100000001001010
1011011111100010
0011010001010001
0011110111000000
0010000101111010
1100010000011100
1011100110011010
0011111011001111
1011110111001100
1011110110110000
0011101000110000
1011100101110011
1011110000100100
0011011000111111
0011011010100010
1011100000110001
1011000101010101
1011100111010000
0011000101100111
1011000101110000
0100000011111110
0011001010100101
0011101001110110
0011010101110100
0100000001010010
0011100100101011
1011010111101110
0001111111111000
0011101010100010
0011100000101101
1011001101100000
0010100110011001
1100000000110111
0011010000101110
0011101010011111
0011100100000110
0011100111011101
1011110100110010
0011101011110100
1100000100110100
1011011001010010
0010110101011100
1011101100010001
0011100010100101
0010100111110011
1011100110100010
1011010001111110
0011110000111010
1010110000111111
0011001000111001
1011101000011101
1011110010100110
1100000000110101
0011101111011001
1011011011101101
1010110001000011
1011011111101010
0010111101100011
1011011100100000
0011101000000000
1011110000110101
1011101000101101
1011100010001111
0011100000000000
1011111101101001
1011100100010111
1011100010110010
0100000001010111
0011101001111010
1011110011000101
1010101101100101
1011110111110111
0011110101101001
1011011000000000
0011101100010111
0011110011101000
0011101111111111
0011010110011010
0011011101000010
0011101101111000
1011110110111001
0011100001110101
0011110011000111
0011101000100010
1011011111001110
1011001110111011
0011011100111100
1010110101100100
0011110101011000
1011101110100101
1011010001001010
1010000100111101
0011100010011000
1010110011001110
1011100100010101
1011110101100000
1011010101000110
0011101110010111
0010110110000100
1011100111000100
1011101011100010
0100000101001001
0011011101101011
1011011110000010
0011010101001101
1100000011110000
1011111100101100
0011010010110001
1011110000100110
1011011101000010
1011110011100010
1010111011000110
0010111110100000
1011001011010000
0011101111111111
0011100100010001
1011101010100110
0011110101011001
0010110101011111
1011101010101001
1010100011011011
0011100011101000
1010101000011111
0011000011111111
1100000001101001
1010110110000110
1011111000100000
0011011100111011
0011010010011001
1011011101011001
0011110000000100
1011101001001110
0011100110111101
0011110100110101
1011100011011101
1011100111001111
0011111010111010
1011110100100111
1010011110010111
0011110001101001
0011101111110110
1011110110110011
1011110111101011
1011011011110100
1011110010001011
0011101100100000
1011100000011000
0011000101111010
1011110011101000
1011011001110000
1010000010010111
0011110001101101
0011110011010010
0011111010010001
0011110111011110
0011100100101110
0011001011111101
1011111101010100
1011101111000010
0011011000000010
1011000100101101
0011100000011011
1011110111001100
0011001100000011
0011010001010111
0011010101110011
0011100111010101
0011110010001010
1011100000111011
1011110100110100
0011110100011011
0100000011011000
1011100111010001
1011010110110001
1010111110001000
0011111000100000
0011101100101011
0010111011010111
1011000001000010
1011010111100101
1011100011111100
1011010011111111
1011100001110000
1011011000011001
1011111010011000
0011001000110100
0001110011111010
0011110011010010
0011111010100111
1011101011000110
1011010000001101
1011100000001001
0010001011100001
0011000100101011
0011000110110100
0011100000100110
0011110011001010
0011011001011100
0011110011101010
1011100111001000
0011111100110001
1011110100100000
1011111010101101
0011101111000001
1011110100010011
1011101110000011
0011100001011001
1011101010111111
1011110100011010
1011110001111110
0011010010100110
0011100101001111
1010110010111011
0011101011000010
1011011111000110
1011111001011000
1011110101100110
1011100101010110
0011110111110010
1011100001110101
1010111101000110
0011011111010001
1011001010010000
1011110111000100
1011101100011001
1011101001101010
0011101110011001
1011001000100100
0011100100110010
0011100001110000
1011110010010001
0011101111010101
1011110011001010
1011110110110011
0100000100100011
0011011010001101
1011110000010110
0011110110001011
1011111010100111
1011110110100010
0011111000011110
1011100101110000
1011100001000100
0011101010100000
0010110011011101
1011100110000010
0011111001011100
0100000101101011
0011010101000110
0011110001001110
1011110100011100
1011110110000000
0011100011100000
1010010100111011
0011010000011010
0011101110011001
1011001010101111
1011110100111001
1011000001011100
1011110100100000
0011101011000001
0011010010111110
1011001000101110
0011010011000100
1011010110111000
0011011100111000
0010111001100110
1010110110111101
1011010001101001
0011010000111101
0011010000111000
1011100001110000
1011011010000011
1011100100000001
0011110101100101
1010010100010010
1011010010010111
0011100011110101
0011100011111011
1011110011110101
1011110011111011
1011010100011001
1010101001100100
0011110100010011
1011011100111100
0100000101000000
1011110001001110
1011010011010110
1011010110001010
0011100101010001
1011100010000001
0011011101010001
0010100101010011
0011010011100001
1011111010111100
0011100110001010
1011100111001111
0010000000010010
0011111100001000
1011100011001111
1011100000010111
0100000000110101
0011000110001110
1010000011001010
1011011101110011
1011110100011100
1011111111000111
1011111100110110
1011110101111101
0010010000010001
1011110010111111
1011100011111100
1011100101000101
0011010101001001
1011000110011001
0011011001111111
0011101101110011
1011001100101111
0100000101000001
1011111000111011
1011011111000111
1011110000001001
0011101101101010
0010010100010001
0011010010110101
1011101101100000
0011001111000111
0011011000000001
0011000111010001
0011010110011101
1011111011011111
0011100000011111
0011110111111110
0011010111111011
0011111000101011
0011000000011111
1011101011101101
0010110011110110
0011001011001100
1011100000001000
0011001010000100
0011110001101011
0100000011101111
1011000110011101
1010111001110110
1011110001001011
1011100111000110
0011001000010000
1011111101100100
1011101010110000
1011100001010010
0011100110011011
1011110011001011
1011010000100000
1011101100100110
1011110100000110
0011110010100110
1010110001100110
0011011101100100
1010010011001000
1011110010101100
1010000000101010
0011110011001101
0011100110010010
0011101010000000
1011101101001101
0011010011110110
0010110100011100
1011110110110100
1011100101111111
1011100010011010
1011101110101010
0011111001000101
1011010000001011
0011110001111110
1011111101110100
0011001010011000
0010100110101000
1011100011110001
0011101011111100
1011111001000100
0010001111010111
0011100101110101
1011101101100101
1011100000110101
1011111001001100
0011011010110000
1100000011000010
1011111001001000
1011011111111010
1011110011000000
1011110101001011
1011010011011111
0010001001110100
1011010100000001
0100000000010111
1011011111100100
0011100100111000
1011011001011001
1011111001010101
0011110101010011
0011110010000011
0011101001110111
0011011010100000
1011000101000000
1011010011110001
1011101100111111
0011001010111011
0011100101011001
1011001110110101
1010100101010100
0011110101000001
1011110101010100
0011010100110000
1011111010010110
0011111000011100
0011100010110111
0011111010011010
0011101011001010
1010100000001001
1011110000100010
1011111010101101
0011110101011101
1011000110011000
0011111001100011
0010100000110000
1011101001001111
0100000000001110
1011100001100100
0011110111000110
0011101111000100
1010101111001110
0100000101111011
0011000110111011
1010011000101011
0011100100011011
1011101111100011
0011100001110101
1011000101010110
0001101110010101
0011110000000011
0011011110011111
1011010011010001
1011010011011101
1010111110110001
0011111001101011
1011101000100100
1011011110000111
1011101110001001
0011100101110011
0011101001001100
1011100001110101
1011111101010100
0011110110000011
1011100000100111
0011010100100100
0011010011111111
0010101001010010
1011011110010100
1011110111001010
0011111011100010
0011011111001101
1011100010101010
1011011111110110
1011110011100001
0011111110011011
0011101110110011
1011000001111010
1011111010010101
0011110100011000
0100000001111100
0100000000010001
0011100000001101
1011100110100001
1011101111111101
0010100101110000
0011111101011011
1011110001100001
1011110011000000
0011101010010110
0011011101100111
1011110111001100
1011100100101010
1011100111101001
1011110100001101
0011000110011010
1100000100101111
1011101011101011
0011111101001000
1011010101001010
0011111101110000
1011100000001110
1011101101011000
0011111110010000
0011110001111001
0011011011110101
1011110100010110
0011001110001011
0011110011111001
0100000010110100
0011111110100111
0011100101101001
0010111011100110
1011101100000000
0011111111101110
1011001100100010
0011011011010000
1011111111011001
0011000110110011
1010011001010010
1011010111001110
0100000101010010
0011100101000001
1010111111000100
0011110010111100
0011010101011101
1011100110101011
0011110000011110
0011011011001100
1011110110110011
1011110111110010
0011110001010001
0011001000000000
1011110110011011
0011011011101100
1011111011100111
1011111000001110
1011010111001101
1011100111010110
0011110101000110
1011000110110100
1011110111010000
1011111000010100
1100000100000100
0011101011101100
1011110010001001
1011110111011011
1011101101000101
1011110010010001
0010110100011011
1011011011101111
0011101001011111
0011100000000111
0011100110010101
0011110101000110
1011011100011110
0010100100011110
1011111000100100
0011100010000101
1011111001011100
1011110010100100
1011110001100011
0011011000101011
0011100110101011
0011011001111110
1011100001100110
1011110101001110
1011011000100111
0010101001101011
1011001000111000
0011100101001110
1011100000000110
1011101111010100
1100000000111101
0011100110101100
1011110010111101
1011010001110111
0011110101010100
1011110000011110
1011000010001011
0011100100011011
1011101011111101
0011100100101110
0011110111011010
1011111011000000
0011101010000011
1011000010010000
0011010010110100
0010100110001110
1011111001111100
0011010101001101
0010100010100100
0011101010101100
0010111110001011
1011101101100110
0011101011101100
0011100001001100
0011101011011011
1011011000000111
1011011010011100
0011101001010001
1100000100101100
0011011110011000
0100000010011100
0011101100110000
0011100001110010
0011110100101110
1011101111001011
1010001010000010
0011001001011000
0001111000010000
0011011100111000
0011011110111100
0011000100101110
0011100010001001
1011101001111011
0011010011110111
1011000110011011
0011100010100111
1100000000000110
1011011011100001
1011101101000110
0011101100001110
0011100101111100
1011011001111111
1011100011000001
1011110001001110
1011100101111110
0011101000101110
1010100101000010
0011101100110101
1011100111111001
0011011101111111
0011011100100011
0010010111101011
1011100101011000
1011111100011011
1011011111010100
1011100011110111
1011101000100100
1011111010111011
0011101101000100
0011101000011111
0010101111110010
0011101110010111
1011001011101110
0011111010111011
1011001101111110
0100000000100000
1011110101010101
0011110011010010
1100000000000011
1011010110101010
0011010100101101
1011101101001010
1011100111111110
1011100011010101
0011110000000010
0011101100011001
0011110000011101
0011111011010001
0011101101110001
0011101101011000
1011111011010100
0010100001111010
0011100010011011
0011110100111100
0011100000111011
0011111101001010
1011110111001100
0011101111101011
0011101110100110
1011001100111110
0011011001100101
1011100100111010
0011000101111101
0011100110010000
1011100011010011
1011110011110011
0011100000110111
1011001100001111
0011011010000101
0011011101110001
1011100011110110
0011110111010100
1011000000000101
0010111011000011
1011100000010111
0011100011101100
1011001100101110
0011011101010101
0011011010011011
1010000010101010
0011101101000010
0011100001010000
0011100011001000
1010111110011001
0011011110111101
1010110111101011
1011011111111001
1011110011000111
1011011010111011
0011101100010010
0011010100010110
0011011001001111
1011011100101011
1010111111111010
0011100001111011
0011001100010110
0010111011101001
0011111000111010
0011011011110011
1011101000000110
1011100000000110
1010110111100111
0011100011111011
1011110011010111
1011110001100110
0100001000101100
0001111101111001
0011100010110100
1011110011010111
0010111101100000
1011100111111110
1011100000001100
1001110111101100
0011100111010100
1011111010001001
0011100100011110
0011011101100100
1011110000100011
0011000110110001
0011011101110011
0010101001101011
0011100000101010
1011011001101000
0010110110000010
0011101001011101
1011101001011110
1011101001101110
1011101101111011
1010110111111001
1011100011011000
0011010100100100
0011110011001111
0011100000000010
0011011011110110
0010111110010101
1011010100011000
1011110101110100
0011100011011110
1011100101010100
0011100010101011
1011100111100110
1011110111010011
0011110010111011
1011111001001010
1011101100010010
1011110011111111
0011101000001001
1011101011011001
1011110110110000
1011110110110111
0011100110000100
1011110111011100
0011100101111110
0011110000010011
0011010001101100
0011100000110101
1011111000111010
0011011111001100
1011011010101100
0011010011001011
1011110110011010
0011110000011111
1011110100000001
1011000110010100
0011110001001001
0011100111101101
1011111001110011
1011111100000011
1010110000101111
0011110111011111
1011011011010000
1011011100011001
1011100111101000
1011010001100000
0010011101101101
0011110101101101
1011110100000001
0011001010111110
1010111010111010
1011110001001111
0011111010001100
1011101100111111
1011100011110000
0011001001101010
1011100001010000
1011110000101111
0011110001011001
0011110011110100
0011110110101101
1011110110110110
0011100001010111
1011111000011000
0011110100000100
1011111110100101
0011110011010111
0011010000110111
1011010000001010
1011100001110010
0011000111010100
0011101010101000
1011101110010000
1011110000111001
0011100010010000
1011101011010001
1011101111001101
0011110101011101
0011110111101101
0011110110110010
1011001111100001
1011101010000111
0011011000101000
0011110111101001
0011100110110001
0011110110110111
0011110001110011
0011101000100011
1010110110000111
0100000111011000
0011010010011111
0011110111011000
0011011100011110
0011100010110000
1100000100101111
0011101111000101
0011111000100001
0011101110011001
0011111000011110
1011101110110001
0011110011001010
1011100001101110
1010100110101101
1011110010101001
0011100100010000
0011100001111000
0100000011001110
0011101110100011
1011011011000000
0100001001101011
0011110000001101
1011100101100001
1011010000110110
0011101100100111
1011101100101001
0011111001101110
1011110100011000
1011111110000011
0011111001011100
0011110011000110
0010111111010001
1011011010011011
1011110011111110
0011000110001111
0011101111101000
0011100110010101
0011101111000011
0011011011101110
1100000101001101
0011110000111000
1011011010000101
0011110101000111
1011110010000001
0100000001000110
1011010010111010
1010100110100100
1011010000101010
1011110001000101
0010001101101111
0011011101000101
1011101000010100
0011100001011011
1011100011011011
1011011100101110
1011010010001111
0011110001100111
0011101010011101
1011100000011111
1011101111011110
1011001011100010
1011101111111101
0010010011011111
1011001000111111
0011110000010011
1011101001101011
1011001101001110
1010011001100000
0011101111000101
0100000100111001
0011110110101001
0011110011000010
0011010011011110
1011101101001011
0011001100100110
1011011010101011
1011101001111000
0011011010100001
0011101001101111
1011111001011000
0011110100110001
1011100110001011
1100000010111000
0011001110001111
1011110100100111
0011100001010010
0011111100111011
1011101111011101
1011010110011111
0011111101110011
0011100101111110
1011111010001001
0011101010111101
0011111110100000
0011100110110001
1011000000100001
0011100001100010
0010111110000010
0011010100111110
1011110010001010
0011100101110111
1011110101101110
0011101111101101
1011000110001010
1011100100101100
0011010001111010
0010011101011011
0011011101011100
0011100110110001
0011010000101010
1011010110010011
1011110000000100
1011110100011100
1010001110100100
0011101101101000
0011111011101011
0011110110011000
0011011101001000
1011011000011010
0011010101111001
1011100001001000
1100000000111000
1011000001110011
1011110110000010
1011010001111000
1011000010001101
1011010101110000
0011110011000100
1011110000101000
1010001111011000
1011111001010100
0011110100111011
1011010101111001
0011100010010010
1011100111110101
1011100011101001
0010100010000110
0011101100001010
0011101010111001
0011101100101101
1011011111011010
0011110010100001
0011010001011011
0011110110101110
1011111110100001
0011000111011111
0011101001011010
1011110010110100
0011110001100100
1001100010100100
0011110100100000
0011011101111001
0011101101011000
1011111101000011
0011000010111101
1011100111000101
1011011111001110
1011100011011101
0011110100010110
0011001010101111
0011100110100000
0011100011010001
1011101001100110
1011110010100100
0010111001011000
0011001010111100
1011011001000100
1011010011110011
1011101100100100
1011011101101011
1011110011110000
0011111001011010
1011001110000111
1011011100100000
1011011001010110
0011000010001000
1010010101110000
0011011011101110
1010101100000010
1011011010001110
0011000000110001
1011101001011110
0011101010100001
1011110001100000
1011010000101000
1011100101110101
0011101000110011
0011100101110100
1011110101011010
1011110010100100
0011100001001101
1011011011110001
0011100010011111
1011001011101100
0011001101010010
1011110011110111
1011101101100100
1011010010101000
1011101100011011
1010011001100101
1010100110011111
0011110011011000
0011001001001110
0011010000000110
1011110010011101
0011001010100001
1010111111001010
1100000011001100
0011100110010100
1011111101000111
1011101001101011
0011001011000000
0011010110100101
1011101010010000
1011110100101110
1010010110001000
0011011111101000
1011100010001011
0011100111111001
1011110101000100
0011101100110011
0010010101101111
0011100011110101
1011000000111001
1011110110001000
1010111010000111
0011011100101011
1011100000010011
1011110100110011
1011110001011011
0011101111111001
1011110101111100
0010111000010101
1011100000001100
0010101011100101
1011111001001010
0100000000010010
1011101111100101
0011100110100100
0011011101000111
1011100011011011
1011101111010001
1100000110010110
0011000000000000
0011101101001110
1011001110000101
1011110010010001
0011111011011110
0011110111010010
1011110001100101
1011101010001101
0010000001011110
1010011100110100
1011001111100001
1011110101100100
1011010110000000
0011111000110010
1010110101011111
0011001010001010
0011010100000111
1011011101100101
0011101010011000
0011100110101111
0011111001000001
0011110100100100
1011010111110000
1011001111010011
1011010110101100
1011010101111101
1011100101100100
1011010000110100
1011101101110100
1011001101010101
0011100100001101
0010111010010010
1010111101111000
0011010100111011
1011011110100011
1011101110100110
0011110000101100
0011001001101000
1011101010011001
1011101000010011
1011110000101110
1011010001010101
0011010010111100
1011010101101100
1011101110001001
1011100000110001
0011110011110001
0011101110110001
1011110101101111
0100000010101100
1011100001110010
1011110101010100
0011010110101010
0011111010010001
0011100011101011
0011110001110001
0011110111100101
0010101001011001
1011100011100000
1011011010111010
0011100100111010
1011011101110000
1011000001010000
0011111111100000
0011011111010001
1011010110110111
0011110010010110
1011001011000101
0011100101111011
0010011010000101
0011100000000000
1011111011110010
0100000000111011
1100000000001101
0100000000101110
0011110000100011
0011101100001010
0011110110000000
1011100100010000
0011100100001010
1010111001001001
0011110001110001
1011110000001100
0011010110111110
0100000100011110
1011111010000100
1011011110000011
0011100111010010
1011010110010101
1011011110111101
0010110111110000
1011100111000010
1011100010000001
0011110110011001
1011100101100101
1011100100110111
1011100100111111
0011010100011110
0100000000101010
1011010001100001
0011110111110100
0011111100110011
1011110001111000
0011011110001001
1011011010011111
0011100101110010
0011110110101111
1011100100011011
1100000000101010
0011100100011000
0011100111110000
1011100010000011
1010011110110101
0100000001111000
0011110001110010
0011110010011001
1010110101101100
0011010111100001
0011010001000110
1011101101110110
0011110010001001
1011110100000110
1011101100001110
1100000011111011
1011100000000101
1011101100111010
0011011110100001
0011010100011011
1011011011000101
0011110010101111
0011111100110110
0011011010011110
0011010110011111
1011000101010011
1011110000001010
1011101100001010
1011110100000100
1011101001100101
0011011111110101
0011100111000010
0011101110110000
0011101010010101
1011100000001101
0010111011110100
0100000001110111
1011000110110111
1011010111100101
0011100110110100
1010111100101110
0011011101001010
0011011011010100
1011011001000001
0011101001011111
1011111010010011
0011010101010101
1011101101101001
0011011000101000
0011101011001000
0011100101100110
0011100100111000
1010100011010100
0011111011110100
0100000101100011
0011001110011001
0011010110001011
1011111000110001
0011110010001101
0011100000101110
1011110000100000
1010110110000010
0011111000100100
1011101001001010
1011010011100111
1010010010011010
1011111000001011
0011110000001101
1011100011010001
0010111010101010
1011001011110011
1011100101010000
1011011110101001
0011100000000110
1011111100110111
1011100100010111
1011100010000001
1011110100101001
0011101000101110
0010110000110011
0011111000001000
1011100100101110
1011110110100111
0100001100010000
1011100101010110
0011111100101100
1100000011100100
1011010110010011
0011100000011001
1010011010010100
1011110110000100
1011111100000111
1011100010010010
0011011110101000
0011110010010011
0001101101101101
1011101111011111
1100000101101100
1011110101110101
0010110000110101
0011101111010010
0011000010110010
0100000101001001
1011101100000011
0011010101101000
1010111110101000
0011100111011100
1011111010100111
1011101000000101
0011000110001110
1011111010110101
0011101011111111
1011111010001101
0011111000101000
0100000001101001
1011111010000011
1011110100010001
1011101100000101
0011101100000110
1011110001010101
0011111100010110
0011101010100101
0010100101010000
0011000101001000
1011111010001101
1011110010001000
1100000111000100
1011110100010111
1011111111110111
0011010100011100
1010100011000010
1011001111101011
1011000101001110
1011110001111100
1011010010110110
1011001110001110
1011101110101100
1011110110011011
1011100010010001
1011110100010000
0011010111100100
1100000011000110
1011110111100011
1011001001010011
0011100000011011
1011100010000000
1011101100010011
0011101111101101
0011111100001011
1011010001100110
0011110000101011
0011000101111000
0011110111001110
1011100011110110
0011100001100110
0010111010000110
1100000100010110
1011000010101110
0011111000101100
0011101100100111
1010110000011011
1011100000110100
1011001100100000
0011110100011011
1011011001001000
1010011101101100
1011011001100111
0010110001010111
1010001001100110
0011110111110110
0011101011110101
0011110010100111
1010011110111101
1100000001001010
1011100000000010
0011110110111001
1011010110010111
0011111000000100
0011111100101011
0011100111111010
0011101111110101
1011111110111101
1010110001010101
1011111100111011
0011101010000001
1011010101111001
1011110110000001
1011101100010000
1011100011111010
0011010010000110
0011001010110011
1010101011100011
0011110000110010
1011110000001001
1011000010010101
1011101000001001
1011101101100110
1011110000011010
1011100100111100
1011110110010001
1010100101111110
0011011011001000
0011000010010101
1011010010001000
1010110000110010
0011011110000011
1010111000111011
1011000111010011
1011110000010110
1011111010011110
1011101000000100
1011100111111010
1011110001010101
0011010011000011
0011100000001110
0011010000001110
1011100000100011
0010111001011101
0011110011101110
0010110011010010
0011010110010101
0011011101100010
0011011111011011
1011100100001001
1011011100100100
1011010011011010
0011101110111111
0100000000010110
1011111100101001
1010111110111011
0010100101000101
0011110110111110
0011110111011001
1011011110001001
1011111100011011
1011100111100000
0011111000001101
1011100100111010
0011101011011011
1011100000000101
1011000101100000
0011110001011001
0011110010011111
0011011011000010
1011110001100111
1010101111111111
1011101100111101
0011100001111011
0011110011111000
0011101011111100
1011110011001000
0011100000010110
1100000011111111
0011111101110000
0011010110000100
1010111110110011
1011000010001011
0011011100101010
0011000011011111
1010110111100101
0011110101101110
1011111010111100
0010010101001001
1011100000100011
1011100001111000
1011100010110101
1011101001010011
1011000001100110
0011111011111000
0011011100010110
0011100000110011
0011111110011111
1010000000100011
0011110011110001
1011100011000111
1011010010010000
1011010110010010
0011000000110100
0011110001010110
0011101100100111
1011111000100100
0011010000011011
0011111001110100
1011100100101110
0011101101100111
0011111001011000
0011111110000011
1011110000110001
1011110011010110
1011000111100010
0011110101010110
0011110010010111
0010100111001010
1011110001101010
1100000100101011
0011100111100100
1011110001001001
1011100111001010
0011000101000010
0011101010110110
0011100111110100
0011110000110110
0010111100100110
1011100011011001
0011110110110101
0011010000001111
0011110000110111
0011010010011100
0010010101000011
0011100100100001
1011111101110000
1010010001011000
1011110110100100
0011010100100111
0100000000010000
0011101000010000
1011101110110000
1011100010111101
0011110000000001
0010111101001111
1011101000001000
0011000110010110
0011011111110101
0011001011100101
1011000101100010
1011101010000111
0011011001001001
0011110100010011
1011110110101000
1011011101100111
1011101111000101
0011100100110010
0011010110001110
1011101110010010
1011100011011101
0011000001111000
0010111101110010
1011110001000110
0011110011011010
0011001101100100
0011111100000101
0011101001001010
1010111111111101
1011101000011111
1011010010111010
0011110101110100
0011100001011010
0011100100110100
1011111000100100
0011100101011000
0011100110101001
1011110111111010
0011101111100100
0011110010000110
1011110011000011
1011001100010101
0011001100010101
1011100100101011
0011101001000100
1011110000101010
1011110011010111
0011001100111111
0011110110010101
0011010001111010
0011000100111010
0010011011101000
1011101100011100
0011100001000001
1011100010110010
1011110100101011
1011111110010000
0011111011101001
1011001100010110
1011001011101011
0011010000010001
1011110110011111
1011110101110000
0011101010100100
0011111110100000
1011100010101101
0010101010001100
0011101000001111
0011011101001010
0011010110010011
0100000101010010
1011110011100101
1011100001100001
1010111101011000
1011110000101010
0011110001011101
1011101010101110
1011100001011110
1100000101111101
1011110000011000
0011010001101000
1011000101010000
0011101001000111
1011100111011110
1011000001111100
1010100111111011
1011101011110010
0011101011001000
0011101110001011
1011111001001110
1100000111010011
0011100000101001
1011110010010011
0011110000110111
0011100100011100
1010110100100000
0011001010111111
0011111111010001
1011010000110011
0011100110001010
1010010110001111
1011110010001100
0011110110100110
1011111001101011
0011111000011101
1011111011100101
1011101101111110
0011111010101000
0100000010001111
1011110010010110
0011111001101000
0011110010010101
1011101011111000
1011110101100110
1011000110001101
0011100001001100
1011100001100010
0011010101001001
1011101010000100
0011101001111000
1011101001000101
1011100100101110
0010001000001000
0011101111111101
0011100111010011
0011101110001110
1011010110011000
1011011110010010
0011101111111001
1100000000000101
1011100011000100
0011101100101101
0011011111000010
0011111011011101
1011010001100101
0010000000100110
1010111101110110
0011001000110111
0011110010100100
1011110000001001
1011111010100000
0011110000011000
0011110110101110
1011000110101001
1011100101101000
1010111000001010
0010110001001101
0011101100011000
0011011110010001
1011111101000010
0011100100110001
0011011100011101
1011100000001111
1011011011101101
0011110111000111
0011001010001001
1011110000011001
0010101111110010
1011110100110001
0011111000110100
1011110101000010
0011101100100010
1011100001011101
1011110000001000
0011111110101110
1011100010100110
1011100010010111
1011010110110010
1011100100101001
1011101100011100
0011110001001001
0001001001111001
0011100000001001
0011100111001000
1010010010000000
0011101011000111
0011010110010000
0011110010001111
0011011001110101
0011110111011110
0011110101110110
0011111010111110
1010110101111001
1011110101011011
1011010100010000
1010100011110000
0011010100111100
1011011101100110
0011010101010100
0011101100101000
1011010110111001
0011111011001010
0100000010000000
0011100000110110
1010011010101100
0011011000111011
1010100010111000
1011010000010111
1011111001101111
1011111111010101
1011000100100011
1011111010100101
0011110010111101
1011101100111101
0011101011011101
0011010000101011
0011110101010100
0011011100111101
1011110100011010
1011000110010101
1011110011011111
1011010010001001
1011100001010000
1011001011001101
0011001011001000
1011110110000111
1011100011100101
0011001001001000
1011110110001000
0011101001110101
0011110100001000
1011110101000111
0011101101001001
1011100000111011
1011011001110111
0011110001001101
1011101111011011
1011000000110100
1011101010010001
0011100111111011
0011100101111110
0011010010000101
0011000000101111
1011111000100101
1011111011011110
1010101110001101
0011100101101110
1011110011101000
0010010101011000
1011110100001101
0011101010000111
1011011011000011
0011010100100100
1100000011001100
1011110011010111
0011100110101000
1011100000101111
0011110100111011
0010110110011101
0011001010001010
1011011101000101
1011000100000010
0011101010000101
0011100100011101
1011101111011100
1011010101010100
1011101101100001
1011011100001110
1011110110011110
1011100000100101
0011101111101010
1010111001000010
1011111100000111
0011100100000011
0011101100101110
1011110000001001
0011000101001110
1011011100000100
1011111010100011
1011100000011100
1011100001100011
1011100010001110
0100000000101010
1100001010001101
0011100101110111
0011011110110000
0011110010011100
0010111110011011
1011110011101011
1011010001111100
1011110111110001
0011000101001010
1010000010110110
1100000100010010
0011111111010111
1001010110001101
0011111110101001
1010110100000111
0010111101111000
0011101010110001
0011100100100110
1011010111001011
1011000001010000
0011110101010101
1011011110110101
0011010001001100
1011001100101101
0011010111010000
1011000000010110
1011100001001000
0011010110011100
1011011011000101
1011100010101110
1011001100101111
1100000011010011
0100000000011011
1011101011010001
1011110001100100
0011100101011101
0011101010100000
1011110100011011
1100000000011110
1100000010000000
1011100111010110
1011010110111001
1011010101111001
1100000001010101
0011100000110011
0011011011101100
0011010001101111
1011101101111111
0011100101010101
1011101100010001
1011011101101110
0011100111000010
0011111010100110
1011101010000111
0011010111110000
0011100110100000
1011000111100001
1011110010101100
0011010110000000
0011100100011000
0011011010101010
0010100000000101
0011010110001011
0011011100111111
1010101101001010
1011100100100001
1011110110000001
1011000011001011
1011101110110000
1010101011111011
0011101010100110
0011100100001111
1011110101100111
1010100101101011
1011100111110100
0100000001110011
0011000010111011
0011011011111011
0011101111101110
0011010000101101
1011011010000101
1011100000100000
1010111100110010
0011110101001000
0011110001100110
1011110101110001
0011101110101001
1011110010110011
1010111110111001
0011110000000101
0011111110000011
0011110000111001
1011010110110010
1011100100011101
0011100110110011
1011001101000111
1011010001011111
1010100011001111
0011110010000110
0011111000001011
1011101100111000
0011110000100001
0011100101111110
1011100001110001
1011010000001000
1011111010111010
0011001001101010
1011011101011110
1011010100100110
0011010010010111
1011110001000011
0011110011010100
0011111110011100
0100000010010100
0011101001110101
1011111011100011
1010010101100100
1011110001001110
1011110010001110
1011111001001100
0011011000000011
1010100100000110
1011100100111101
1011110001110111
1011110001110001
1011100011110100
1011010101101010
0011101010100010
1100000101010011
0011100001011111
1010100110100110
1011101100110101
1011011000010001
1011101000100100
0011001011100110
1011001011110001
0011101100111001
1011110000001001
1011101100110001
0011110100000001
0011011100101110
1011110101010111
1011101010110010
0011011001101100
0010000100100100
0011101010011101
1011111001100100
1011010010011010
0011110100011010
1011001011111011
1011100011101111
0011001000110101
0011110111110111
1010110101010010
0011011010000011
1011010100011111
0011000011100011
1011010011100011
1011011001110011
1010111101111000
1011110010100010
0011101100011010
0011101100001001
0011110100110110
0011000001001100
1011000100111010
1011111101111101
1011110111110111
1100000011100111
1011010101010000
0011011001100111
1011110111011010
0011011100111001
1011001011101100
1011100011011111
0011100011010100
0011101000111110
1011110001011011
0011101000001110
0011110110100110
1011110100001001
0010101001011110
1011111110000000
1010111101011010
1011110000110001
1011111110100000
0011010101011001
0011011100110100
0011101110010011
1011111011101100
0100000100010001
0011110100100110
1011011101000000
1011110100100010
1011011101011010
1011110000000110
0010110110110101
1011010010001000
0011001000000110
1011010101000010
1011100011010001
1100000100000001
1011101111111010
0011111000010100
1011111010110111
0100000001011011
0011100010111101
1011110011011100
0011100101011011
0011010000111010
1010110110001101
1011010111001001
0011010110100101
0011010100101010
1011111110101100
1011010101000010
1011100000110110
0011000001101000
0010111110011101
0011111111100100
1011011000111100
0011010101001011
1011100010111010
1010011110011101
1010111000110111
1100000001010001
0011011000100101
0011110001011110
0011101010001011
1011110001001100
1011110111010000
1011111111000010
1011011101111100
0011010110100101
0010101010111000
0011101110100100
0011101110110011
0010101011001101
0100000110101111
0011100110101001
1011101111011000
0011110111100000
0010100010101000
0011111001000001
1011110100000100
1011000101010000
0011010111110011
0011000100101110
1011100111101001
1011110001011111
1001011000101000
1100000010000000
0011011011000110
0011101111001000
1100000100111101
0011100011101111
0011111001010001
1011100001110001
1011110010101011
1011010011010100
0011110000100101
0011010101001000
0011100101000000
0011010100000110
0011011110000111
1100000000001000
1011000010111100
1011110101010011
1011000100000110
0011101100111010
0011001100111101
0011100101101111
0010100011010101
0011000110001101
0011110010110011
0011000100011101
1011100110111001
0011010001100101
0011001111111010
1011011001101011
1010011100110110
0011011111001101
0011101011011110
1011010010111101
1011001111001111
1011110010000111
0011000001100111
1011110011110000
0010100011110111
1011100010101110
0011010011010100
0011100000101010
1010011000101000
1011101111101000
0011110000101100
0100000011000100
0001010101010111
0011111110101101
1100000000110001
0100000010010110
0011110010101001
0011110111000010
1011010100001110
0011100011100000
1011100011110010
1011110111110010
1011110010000111
1011100101011101
0011110001101110
0011100000110010
1010010000110100
0011010001001101
1011011001101000
1011101010101111
0011101010110111
0011110110010100
1011101101011110
1011101111100011
0011011111000101
1011101101110010
1011100110111001
1011011111000010
1011100000100000
0011011010111011
1011010000000111
0011101000100000
0011111011001010
0011101010101100
1011110001110000
1011011010101010
1011010010110010
0100000010101000
1010001001010010
0011111001000110
0010111011100000
1011011100000011
0011001111011101
1011111011011000
0011000011100111
1011111111010100
1100000001010000
0011101100000111
0011100011111010
0011000101100101
1011101011001100
0011010110110010
0011111110010010
1011000100110000
1011100001011011
0011111010100001
1011011010100000
1011111001000001
0011011101010001
1010110100111111
0010000101100011
1011110100111100
1011001011011111
1011100001001100
1011010010101100
1011110011110110
1011100001101011
1011010011000110
0011010001110110
0011000101100111
0100000000001111
0011010011000101
0011011100011001
0010010101010011
1011001101110101
1011100110011011
0011100001111000
1011110000010000
0011111101101101
1011111101110011
1011010001000011
0010111111000100
1011110001111110
0010111011001110
0011010100110000
0011101001001110
0010011100100101
1011110100111111
0011100001010101
1010110001011110
1011011110111111
1011110110011000
1011110000101000
0010010110101101
1011010100100111
0011010001111001
0011010000001111
0011111111111111
0011111001010100
0010100010001000
1011111011101110
0011111000011110
1011110101000000
0011101111000111
1011100100010111
0011011111100111
1011000001110101
1011101010101100
0011010101101110
1011101000001011
0011011111111010
1011111011110010
1011111101110010
1011101111111100
1011111010000101
0011101100100010
1011110111100011
0011100110101001
1011010001011101
1011111101100100
0011100111010001
1011011100000001
1011100001110100
1011110011110000
0011011100111011
1011011101100101
0010110110111101
0011100001110111
1011110010001110
1011100001100100
1011110001111000
1011110110101000
1011110010010101
1011111000101010
1010101011111010
0011010010110010
1011100010101101
0011111000111101
0011000101001011
1010110011110010
0011101000000111
0011011111100011
1011101011101011
1011100011110111
0011001000100101
1011110000110001
0011100100110111
1011111010010101
0011010010000100
1011000111111000
0011100011011010
1011010101001111
1011110001110000
1011111000111011
0011100110100110
1011101000110001
0011100010010100
1011001100010010
0010110101001111
0011000000100111
0011110100110100
0011100011101001
1011011101011110
1100000111000101
1011100011100001
1011100001111010
1011110100111111
0011010110110010
1011111111000110
0100000101011011
0011110010110111
1011100101001001
0011110001101110
1010110111100100
1011110000000001
0010111011110001
1010110111111101
0011010001101110
1011100001111011
1011110100000101
1010011101010101
1011011111101011
1011010001111011
1011010001110000
0011101111110110
0011100011000000
1011100001110110
0011100001101011
0011100110010100
0011011101101010
1011100100000100
1011011001101011
1011100110001110
0011000011110100
0011101101011001
1011100111010101
1011101100110010
0100000100011000
0011010100010000
1010110001011110
1011010110100000
0011100000111011
1011110111100111
0011011010010111
0011010001011000
0011101000011110
0100000000100011
1011110101110001
1011011001100001
1011101011100101
1010110010010011
0011000111000101
1011110110010101
0011011010010110
1011111010000111
1011101100011100
0001110101010010
0011001010111100
1011100000011101
0100000000010011
0011111011000100
0011110010010100
1010100000010010
0011101110001110
0011100111101010
0011000000011100
0011010010111101
0011111101011010
1011110010000001
1011001000110000
0010110110110100
1011111110101010
1011000110000000
0011001011010000
0011110000000011
0011111001011100
1011101001011010
1011010110010000
0010010110110010
1011111011000101
0011000100101000
0011110101011000
0011110011110101
0011000101000000
0011110111011111
0011110001101001
0011110010110101
1011110101110100
1011011110001010
0011000011101101
1011101101010001
1011011011111101
1011011000000111
0010101100100011
0011101111110001
0011010011000011
0011100011111010
0011110101111101
0011110101001101
1011100101111011
1011100111111001
0011101011001000
1011100010001100
1011011000001111
0011111101110101
0011110011101111
0011010101010001
1100000010000010
1100000001001110
0011011011011111
0011101001100011
1011110001110011
1011110111110110
0011100111000101
0011010101111011
1011011010111001
0011111111000010
0011100100001001
1011100110110011
0011101001000100
0011100001101110
1011110000001101
0011010001101011
0011101100000111
1011110000011111
0011110000111111
1011011111010101
0011101001110110
0011101000100010
0011001010101110
0011101111101010
0011111100101111
0011100100010110
0011111110011111
0011100110111001
1100000010000010
0011110110001111
0011110101010000
0011000001100011
1011100101010101
1011101101111001
1011101101010111
0011100001100000
0011110100110110
0011101111101010
1011100001101110
0011110011110100
0011100011000000
0011110001100011
0011101001100101
1011101100010100
1011001101101110
1011000101110101
0010110110100010
0011101010000010
0011000100001000
0011100110011110
1011110001000010
0011101001010101
0011011110001100
1011100101010101
1011111011011000
0011100101010110
1011110110110011
1011101100100011
0011100100110110
0011111110000110
0011101101101000
0010010011011100
0011011100001011
0011101010000100
0010110000000011
1011100111101011
0011101101011100
0011111001100001
1011100110101010
1011110000000011
1011110110000100
0011100110111001
0011101110010001
1011000000111101
0011011110011011
0011011110111110
1011011000100000
0011110101010110
1011110100111001
0011110100000100
0011101011011111
1011011110111010
1011111011011000
1011110101101111
1011110110010110
1011011010000010
1011110011111111
0011111000001100
1011110111000001
1011110000000000
0011101011001100
0011101100001010
1011101000101101
0011011100111000
1011011111000100
1011000001110111
0011100010111100
0011100110001111
1011100010100001
1011111001011111
0011100111100011
1010100001011001
1010101111111011
1011100110000001
1011111000111000
0011100101110100
0011010011010000
0011100000110101
0011001000010001
0010101101011001
1011111011100111
1011110011100001
0011101011110000
1011100101010010
1011110110011000
1011000010010100
0011100001110010
1001101000010000
0011100110010110
0011001111001011
1011100001110100
0011010100001000
1011001011110010
0001001110010011
0011111101110010
0011101000101110
0010110100001101
0011110111110011
0010100101011011
0011101011000010
1011010111010110
0100000001111011
1011000101000011
1011010110010010
1011010011111110
1011110111111010
1011110110000100
1011110100101000
1011010011000001
0011100110110000
1011101010011001
1011101100111110
0011000010101111
1011110011100100
0010110010000111
1011101000000011
1011100100110111
0011110100010110
1011111110101111
1011101011111101
1011111000010110
1011000010100111
0011011111010011
1011110111111000
0011111000110010
0011100000011010
1010010010100001
0011110010101010
0011110100010111
1010100100000110
0011110110111110
0011100000100001
0011010101111111
1011011110011011
1011101010010010
0010111101111100
1011100001100000
1011101100000110
0011101100101110
1010000011111100
0011110010111000
1010101111000001
1011100101000000
1011100001000000
1011011101010100
1011100000001111
1011010111010111
0011000000000111
0011111001001110
0011101011000101
1011100110001101
0011010010000000
1011101100101001
0011110000010111
0011100010101101
0011110000000101
0011001111100011
1011100010100001
0011101111110000
1010100100100110
1010111111101100
0100000100000110
1100000000011001
0010110000010001
1011000100110001
0011110110011010
0010101111101110
1011100000010001
0011101100100010
0011001001110001
0010101110000011
0011110001000100
1010100011011011
0011111101001011
0010011001000001
0011101111100100
1011110100101010
1011001100100001
0011111110100110
1011110011110000
0011100101100001
1011011000110111
0011000110110010
0011001100111011
1011000101011001
1011100000011111
1011100010010000
0011000111110011
1011001001101000
0011111110000010
0011010000010110
1011101011001011
0010111111110000
1011110010000110
1011110000001011
0011001010000010
0011111101010000
1011010001011101
0011110100001010
1011110010110111
1011000100000101
0011100000100010
0011000110000100
1011110011010101
0011100011110001
1011100100100101
0011010100000011
0011110100011100
0100000001011010
1011101110110110
1011111000100111
1011110000100011
0011110110101100
0010101111010110
0011100010110110
0011010110010011
1011000010011010
1011111110000111
1011011010100100
1011110110010110
0011010000100100
1011110101010110
0011011001101101
1011101101011101
1011110100110101
0011000101010011
1011100010000101
1011110110010101
0011110000100111
0011100011111010
1011110000101001
1011000010100100
1100000010111010
0011110110111110
0011100010100101
0010100010010001
1011001010000111
0100000100010111
1011011110101001
1011111001110100
1011110101111010
0011110110001111
0011010101111110
0011000001010001
1011110011001111
0011110011001110
1100000000010100
0010101000010000
0011011101101010
0011010000001001
0011111000110001
1011100011011100
1011110010100100
1011000110101010
1011101001010101
1011100101100000
1011100100110000
0011100001100101
0011110000110010
0011011100001111
1010110000100101
1011110111000010
0011110010111100
1011111001000101
1011011011011110
1011110111000011
0011010100111100
1011000110011100
1011010110001110
0011100110110000
1011100001001011
0011010100110100
1011110101001000
0010111101010000
0011010111001011
1011111101100001
1011110000011000
0010111000000100
0001101001000010
1011100011100111
0011100001010011
0011011000111001
0011001001100000
1011010010001100
0011111101101100
1011100100011100
1011100100010010
0010011011100000
0011110011110100
0011110111101001
1010101011100001
1011111000010111
1100000001100010
1011110001011000
1011111101010110
0011000101000110
1011111111110001
0010111100101000
0011010110010011
1011001001110101
1011100000111011
0011100101001010
0011110001111110
1011111100001000
1011100010110101
1011101101010100
0100000010010100
0011100010111011
0011010011011010
1011010101010111
1011011111000010
0011101010001100
0011110100101101
0011100110101011
0011011101010111
1011110011011111
0011100110000111
0011100101111011
1100000001000010
1011110100101101
1010111110000101
0100000010110011
0011111000101110
0001100100001111
0011101101110000
0011110011101111
0011101010100000
0011111000110101
0011101010110001
0011110011010001
1011110110101001
1011010010100110
1011010001011111
1011011010100110
0011100010001101
0011111001100111
0011100100000000
0011111110011000
0011011001100010
0011111000111011
0011111111111011
1011101000111101
0010010110111111
1011100111100011
1011110010100011
0011011110101110
1011101100111110
0011101100110011
0011100101101001
1011101101010000
1100000000001001
1011111101011101
0011010001111111
0011110000101111
1011111000000011
0011110011010101
0011110000101101
1011111000000010
1010100000100101
0011001110000111
1011111000100101
0011111110111000
1011101111110011
0011001001011001
0011101111001011
0011101110000000
0011101101100001
0011001001010011
1011100001011010
1011101001000110
0011000010110001
0011000010011011
0011010110001001
0011100001011001
0011111100110010
1100000001010100
0011001100101000
0011000101111100
0011101111000111
0011100010000001
1011011111101100
0010110111010101
0011110001001000
0011110010000011
1011101000001011
0010111000100010
0011001001101101
1011100101000111
0011110101001010
0011110110011110
0011110101101111
1011011001001110
0011011001001011
0011110011000101
0011101011011000
1011010111110010
1011010110010011
0011101000110011
1011110000100001
1011101000010100
0011111010001110
1011100000010100
0011010011000110
1010110001101110
1011101101001001
0010111001111111
0011000001001110
1011101010111000
1011111110000001
0011111010101011
0011111000010100
0011101001111111
0011010100001001
0100000010001001
0011001110010001
0011000010110000
1100000111011000
1011111100001010
0011111100110100
0011110001111010
1011100111010100
0011100011000001
0011000101010101
0011110110111011
0011111001111111
0011111100111101
0011111000010011
1011010001110001
0011010010000011
1011100101000011
0011110001011000
1011101010001111
1011101101100011
1011100001000011
0011000001100101
0011011000011100
0011101001000011
1010110111101101
0011011100010100
1011011011001011
1011011001111111
1011100000110100
0011111110111101
0011111010101100
0011010111101010
0011110101001000
0011100101001110
0011001101110000
1011100100001100
1011111111101111
1011110111010010
1011110000001000
0011010000101001
1011101101100100
1011010110011101
0011100011111011
1011110010111110
1011011110110100
0011110011101010
0011111011011100
1011001000111100
1011110100000001
0010101111011011
1010001110001111
1011100100000101
1011110011111101
1011100101110010
0011101111010101
1011010010110110
1011011001100111
1011000010101011
1011110111001111
1011110101001000
0011101100011001
0011101101100111
0011111101001000
1011010011100011
0011001101000100
1011110010101000
1010111010011000
0011100100111010
0011111001100010
1011101100000100
0010111011100100
0011100010010011
1011110101010110
1011110000100111
1011010101010100
0011001011011011
0011010011100100
0011110110000000
0011010101101010
0011110101101110
1001111001001101
1010101011100000
1010111001011100
0011111001110000
1010111011100001
1011101110011000
0011010001101011
0011110111001010
0010100001010000
0011110010001001
0011100011100101
0011110000001011
1011111011111101
1011101010000100
0011010101100101
0011100011010110
1010111111101100
0011011100100110
0011100001100000
1011100110010110
1011110000101010
1011110000101110
1011010010110010
1011110011111100
0011011110000011
0010000111001101
0011001111010011
0011101110110010
0011100100010100
1011101011001010
1011100110111001
0011100011000011
0011100010010011
1011111010011000
0011100111101001
1011101110110100
1011111111101110
0011100010011100
1011110110101101
0011100101001001
1011000111010111
1011110001000101
1011110000001100
0011000011000110
0011010000101111
0011111110101000
0011010111000100
0011110011100111
0010111111010000
0011000100101110
1011110010011100
1011011010110111
1011110110110011
1011101101001001
0011100011110000
0011101011100000
1011010100001000
1011001011100110
1011111010000100
0011011001101000
0011110010001010
0011110011000100
1011011011000101
1011001110001110
1011000000010001
1011100110001111
0011110110101110
0010010000010000
1011111001101010
1011000010100110
0011110111001001
0011001100101001
1011010111000010
1011110111011011
1011011001101011
0011101110100110
0011110101111000
0011010101001101
0011011111000110
0011011000111011
0011101011000011
0010110111110011
0011110011110100
0011011001000111
1011010100101000
0001001110110001
1011100010100001
1010001001000011
1011011001010101
1011110101011111
1100000000110101
0011011010111001
0011100100010010
1011111010110001
0010101011100011
0100000001000111
0011000111000011
0011001000010111
0011011000100001
1011110000111011
0011111011100101
0010001011111011
0011110000100100
1011111001101010
0011110110000010
0011111001010011
1011110101000110
0011100110101000
0011011110111001
0011101111001011
1011110100101100
0011011100010111
0011010110100110
0011100110110011
0011110001000111
1011101011111111
0011100001100011
0011001000111101
1011100011011000
0011101101101001
0011110101111011
0011101001001001
0011100111001011
0011101111010100
1011100101100100
0011101011111000
1011111001001111
0010101100001101
1011101011001010
1011011100010011
1100000001100100
0011100011000101
1011100000010010
0011110110100000
1011010000000110
1011011111110101
1100000100101011
0010010111001000
0011100001100011
0100000001111001
0011101101101110
0011100100111111
1011011111010111
1011111010001110
1011100011111010
0011000011011011
1010100000011001
0011011111010001
1100000101100101
1011110011000011
1011011110001110
1011001000011100
0010110100011010
1011101100001101
0011111100010111
1011101010101110
0011101010001011
1011110101000110
1010000010111000
0011101011000011
0011011111101111
0011100110001010
1010111011011101
0011101101000010
1011110000001010
1010111101010101
0011100111000001
0011101001011001
1011010100000011
1011101101000100
1011010111011010
1011110001000100
0011011100001110
1011100010001001
0011010100011110
1011110011010111
1011111100000111
1011101110000100
1011101011001111
0011001010001100
1010100111011100
0011110010011000
1011100010101101
1011100010001010
1011000001001010
1011100111001010
1011101111010000
0011100001011011
1011011101100110
0010110111110101
0011111001101111
0011011101110000
0011110011011101
1011010100111001
0011010101001110
0011010100001110
0011010000110111
0011000011101011
0010101001000000
1100000000110001
0011101010110100
1011100000011100
0011011000101101
0011110000111100
1011110000000011
0010101001111111
0011100000100011
1011100111110100
0011111000011101
0011000110000001
1011100110000000
0011001100101111
0011111110010011
0011101001100010
1011101011000001
1011110110001110
1011010110011011
0011100000111000
1011100001011011
1010110010110110
1011100100010000
1011111011011000
1011100000110010
0011100001001000
0011110000001110
1100000001011000
1011100101110111
0011011001100111
0011100100100101
0011100000100110
0011100111111101
1011111011100110
1011100101100011
1011010111101111
1011100111011111
1011010011101011
0011010001110111
0011000110011010
1011100111001101
0011111101001001
1011101110100011
0011101000000101
1011110001010100
0010110101101101
1011101110110000
1010010011100010
0011100101110001
1011000010010011
0011110111110101
0011100100110001
1011110100010011
0010011000000010
1011110110000100
0011000010111101
0010101000010101
0011110001111111
0011001111101100
1011101011001110
0011101001010111
1011110000000101
0100000011001111
0001011011000110
0011010110111110
1010111100010110
1011000100101101
0011110110110111
1011000101000100
0011100011001000
0011001111100100
0011110011011110
1011110001101011
1011100100100100
0011101100101010
1010110001100111
1011011100011000
0011110100001111
1011110000001100
1010111100011101
1011100111111101
0100000010100110
1011100110110100
1011101000111101
0011111001100110
0011110001010011
1010011111011000
0011110000111001
0011011000000101
1011011110011000
0011010101000100
0011011001100110
1011100011011111
0011100100010010
0011011010010010
