1.37391758
0.08807509
0.09293102
0.82556421
-0.32906359
0.15128289
-0.18844235
-0.75672251
0.79101360
0.54356241
-1.20801747
0.22064157
-0.22224498
-0.30009043
0.34244254
1.14580715
-1.81766105
0.16537739
0.07444216
-0.67305678
-0.84665215
-0.69325507
-0.38513097
-1.31894922
0.41072288
-0.20233922
-2.10228252
-1.23560500
0.83372259
0.17057343
-1.46996331
-0.16974407
1.18470752
0.32900542
1.34803164
0.19856539
-1.75734925
0.06002500
-0.68003690
-0.84139872
0.16208133
-1.31818795
-0.05572449
0.72144061
0.09814913
1.00510371
0.66098934
0.43116102
1.95822120
0.84449667
-0.57494074
-0.80738276
0.33622587
1.44830084
0.76144046
-1.72180569
-0.61455983
-1.22715795
1.34470057
0.58327460
0.14337008
-0.68057257
1.27078903
-0.54906207
-0.18406115
1.14997447
0.28566632
-1.23318481
0.00569421
0.02252262
-1.26803303
-0.48116201
1.03636909
0.84734398
-0.90178418
-0.84907907
0.88884735
1.99222159
1.58300507
-0.78155965
0.02886979
-0.97060227
-0.93167210
-1.66633463
-0.72212821
0.18513635
0.93595552
1.53249598
0.34114021
-0.37030846
-0.36211935
0.23868920
1.48323691
-0.35561442
0.52089888
-0.45160121
-1.46561158
0.31966907
-0.50837445
0.84727043
-1.13261819
-1.11380327
0.64086646
0.01019013
0.11935233
0.26731077
-0.28893444
-0.50127697
-0.15897122
-1.41829872
-1.17812991
-0.80188656
-0.42166248
0.44453347
-0.82602197
-0.04082853
0.98018157
-1.54355621
-1.02109146
0.98176765
-0.70471489
-0.42997578
-0.65167093
-1.11408377
0.13732129
-0.94241947
1.17796707
-1.42198634
-1.06117249
0.38440067
-0.60672671
-0.41791868
0.61426127
0.70839399
-1.27477407
0.44011685
0.68916214
-1.20769227
-0.53435385
-1.11526704
-0.69234186
0.25700262
-1.49221599
-1.15349543
2.02019167
-0.46299884
0.39631036
0.92339617
-1.28457642
-0.49838054
-0.79573745
1.20415890
0.74306607
0.61547399
0.47735065
-1.14224494
0.92977959
0.53087658
-0.33798829
-0.33736634
0.38022375
-1.23639154
0.42897597
-1.78668082
0.48667693
-0.03816507
-1.17321908
-0.67226106
-0.04973942
-0.04170555
1.25664663
1.47612798
0.12347454
1.33898115
0.13711186
-0.34938622
0.97462445
-2.88074493
0.56329715
-0.45490381
-1.14356363
0.05099357
-0.15933704
0.27140796
0.99062711
0.05507524
0.16159597
-1.39465654
1.32684600
-1.13030505
0.05115083
-1.07075369
1.60710454
-0.41982287
-0.83553529
0.60751134
-2.13931847
0.15568444
0.19222994
-0.93172216
-1.03142130
-0.26655310
0.16366647
-1.46768200
-0.62333083
-0.52436596
-1.05133224
0.63130087
-0.37569439
-0.97264802
-0.74222517
1.04372370
1.06081390
0.68816423
0.96376771
0.47471708
1.48861456
-1.38932061
-0.40925938
-0.59194016
-1.04781175
-0.25099769
1.52491641
1.33271837
0.13302307
0.79346806
2.20635104
1.32951880
-0.44305989
-1.49897504
-0.90400672
0.77635515
-0.84889877
0.85434532
-2.68975544
1.01164377
1.28296804
-0.56429344
0.38852182
-0.69347852
0.50580215
2.50612640
0.51712674
-0.35881600
0.39479017
-0.62776303
-2.17197585
1.33591795
-0.48796400
-0.48954239
-0.95322680
0.95234042
-1.57387745
0.62627888
-0.01738300
-0.12551662
1.22079682
-2.61568928
0.38422436
0.43498316
-0.68478703
0.08483635
0.58084846
-0.60974598
1.34591818
0.72243434
-0.34746194
-0.21282645
-0.01432314
-0.64706641
0.92131644
0.91877174
0.02580275
-1.48068333
-2.79198718
0.04839469
-0.67776346
-1.81066036
-1.16565084
0.22558755
1.19101977
0.05188386
-0.02481177
-0.98237771
0.37208742
0.48975518
-0.44729573
2.08301640
1.03703678
-0.03805874
-2.41449046
0.93712074
-0.81291592
-0.80592567
-1.36399508
0.55368835
0.44446349
0.62676436
-0.82030118
1.06108356
0.97842085
-0.72589636
-0.97732288
0.81648403
1.42132902
0.00753333
-0.35191193
-1.33111310
-0.65331912
0.13423590
0.00841812
-0.58131695
-0.53833312
0.54510534
-0.95304829
-0.15308663
0.13560237
1.21600819
0.61347163
0.67207736
-0.09043239
-0.80298895
-1.09196448
-0.32352799
-0.01351398
-0.08021291
-1.16665101
-0.05112444
-1.35410237
0.34034142
1.27811706
-1.30558813
0.67540783
-3.20783591
-0.06958418
1.65512502
0.88430142
2.18549848
-0.61741114
-2.58123350
1.03126740
-0.05554248
-0.35330203
0.28966063
0.60163891
-0.24001464
0.23418659
-0.09959536
0.79817110
1.15393054
2.20994973
-1.52869165
0.78746301
0.03125736
1.31681728
1.14975810
1.11871803
0.33471644
0.99862117
-1.02951169
-0.26745829
1.17501438
2.25716496
-0.40423328
0.49741653
-1.09586585
1.22851622
0.44571164
0.84597629
0.74691957
0.57825100
0.82093865
-0.68131423
1.97795510
-2.55743003
0.30877411
-0.64838964
-0.90705663
1.05440712
0.79687762
-1.52118671
0.93383193
0.73166573
-1.46321309
-1.78798962
1.24239182
0.26076928
-1.00648665
-0.07302524
-0.14421418
1.15714514
1.04710543
0.73995739
1.65116024
-0.21726976
0.27338457
0.54128408
0.16127449
-1.06549466
1.73143530
0.06030795
2.18722320
0.67014849
-0.16813861
-2.08828568
0.92912626
-0.12963457
-0.96427715
-1.03408146
0.25508749
-0.92021632
-2.23241234
-1.13646924
1.09832108
-0.36837617
0.80853200
1.03445387
0.03896670
-0.04065708
0.06845703
0.15326451
-0.93847615
-0.15181807
1.55971861
0.37353280
0.51444191
0.11345034
-0.18666667
0.22873409
-0.92086774
2.69352317
-1.36956167
-0.77194840
1.56950545
1.10517085
0.30640095
0.41620469
-0.52623016
0.92621315
-0.41449103
-1.70122027
-1.28424740
0.85292792
0.69411361
-0.78219563
0.04729705
-1.61665893
-1.32521045
-2.69047475
0.27477482
-1.36529315
-0.68515259
-0.17922789
0.48861066
-0.59197426
1.53950834
-0.40832052
1.00780272
0.76359236
-0.94325829
-2.05114555
-0.33116636
-1.86225975
0.72639418
-0.88196456
0.74280328
-1.81829834
-0.65942335
1.82295656
-0.81788146
0.02390949
-1.52537072
-0.85306859
-0.35293302
0.24990129
-0.76378787
-1.97715557
0.69946057
0.46513027
-0.39980617
0.31394807
-1.42355537
1.45436800
-0.01954208
0.58803976
-0.35443208
0.41794279
-0.18873261
-0.60307211
1.73423505
-0.03613695
0.43495259
0.94196534
-0.29675850
1.47461581
1.41479683
1.01601577
-0.05178015
-0.60759580
1.22300828
-0.99875671
1.06066442
0.51865840
-0.72472817
0.49189284
0.62140054
0.65211445
0.00151389
-1.03850663
-0.28135267
0.91897613
0.16170721
1.81518495
1.09233749
-1.21729875
0.10699909
0.40272909
-0.03582690
-0.31917053
0.25698751
-0.98487866
0.80615723
-0.19947515
-0.75687045
-0.05955793
0.98406327
0.28335997
0.13550165
-1.37161350
-0.51566344
-1.31799543
1.23187208
-1.17280531
-0.32582256
0.41266122
-0.05909712
-1.50255764
0.56099916
-0.20791405
-0.64691156
0.01810564
-1.96748316
0.27074763
-0.86101305
0.23073429
0.75893188
0.03292849
-0.29281050
0.17495471
0.60073119
-0.65321112
-2.73038363
0.93306535
-0.03397637
-0.47307238
1.92416084
-3.05346537
-1.23276448
0.61453819
0.15689768
0.23805892
-1.03690720
0.04001096
-0.34829009
-0.09261198
-0.60221636
0.85638154
0.42412046
-0.27786657
0.58411694
1.09350967
-1.23498166
1.33576417
-1.73179984
1.24435127
0.05326369
-1.57602274
0.42759657
0.06991208
1.42711759
0.74889857
0.13094188
-0.50301051
-1.13237035
0.01244523
-1.01886201
0.78318256
0.52366924
-0.50027126
-0.52437490
-0.06829119
-1.37524199
0.81424403
0.34872162
-0.34409192
-0.85273170
-0.55125296
-0.87385476
0.45118159
0.87443119
1.13102376
-0.85277534
-1.15163291
-0.09594176
-1.33000278
1.44570339
-0.23938431
1.19094181
2.13269472
1.13347650
-1.09425640
-1.38383234
0.38939145
0.40021455
-1.51408827
1.05393910
0.86176282
0.25629756
1.20442700
1.57718563
-0.45201936
0.77559924
-0.69475162
0.93275386
-1.01758659
-0.29255670
-0.14911413
-1.84539461
-0.86155695
0.28058717
-0.18102415
1.31734562
-0.76478678
0.13332388
0.73684305
1.32324588
0.02548701
-0.70425975
-1.26916754
-2.48229194
-0.35702309
0.79843128
1.27505744
1.41729641
0.83150136
-1.38881755
-0.51048940
-0.67399973
1.80327070
-0.70261514
-0.03809886
-0.31302142
-0.58492422
0.88698167
-0.24262898
-1.17247653
0.90679938
1.94577193
0.59973449
-0.97764945
-1.28575921
1.12790322
1.35068774
0.79562378
-0.72889960
-1.12764144
1.20491719
-0.39617696
-0.83623850
1.41461277
-0.75671220
-0.20451629
1.18733573
-0.01655839
-0.75517243
1.33203864
0.50717491
1.02581930
-1.27359784
0.51004750
-1.59057689
0.04845295
1.54272783
-0.37855098
0.40236732
-0.06169201
-0.33726466
-0.37441495
2.90508485
-0.86105078
0.55187070
-1.47884738
-1.12444508
-1.13821077
2.32204127
0.24320260
-1.04813886
0.36614251
-1.05269957
0.06301673
0.66040254
0.62020493
-0.85870832
0.79499304
1.20518613
-0.43517643
-0.59735036
-0.69365579
-0.54401243
0.68350196
1.13275194
1.46911860
-0.10841318
0.71087438
0.75129950
-0.68969792
-0.05377060
-0.35559916
-0.49206260
-0.52107638
1.13852239
-0.50254250
0.25556186
-0.81400269
0.86668658
-0.29973355
-0.67988712
-1.22720850
0.45307240
0.13383798
0.61068469
2.27699113
0.51377463
-2.45397854
-0.64073884
-1.35213947
-0.43075439
0.23965093
-1.52573621
0.08679557
0.08841171
2.77115488
0.26830009
1.34349513
0.77075893
0.07367848
0.77377802
-0.04779350
-0.17607814
1.30857289
-0.91899681
0.26376405
-1.58064806
0.76068521
0.78821719
0.31045702
-0.70209318
0.97464067
0.05535702
1.83464980
-0.93808991
1.89917970
-0.11194217
0.01115650
-0.29471013
1.03666854
-2.16363120
0.15906584
-1.12708724
0.12550744
-1.84799981
1.32313561
0.62075460
2.95331311
1.10441458
0.91358107
0.89365917
-0.06123338
-1.14429116
2.19299984
-1.10361922
0.90966803
2.67681360
-0.99228311
0.50901794
-0.68975317
-0.44331518
-0.19205710
-0.57932699
-0.11086070
0.18532397
-0.09300761
-0.14299390
-0.46497041
-0.27822262
0.26017538
0.91037142
0.53549469
-0.02471451
0.28931999
-0.43421513
0.08229713
-0.74055171
2.11433792
0.41074324
-0.64805084
2.17116308
0.10084089
-0.01200056
-0.86400801
-0.36072263
1.51831198
0.96143788
-0.16273154
1.61844313
0.32618755
-0.09169579
0.62783825
-0.82031327
-0.46601284
1.67937362
0.27303690
0.45622480
-0.31581309
-0.94203961
-1.18030667
1.12382221
0.31416142
0.99172890
1.48200190
-0.90164876
0.34082413
-0.31782198
0.26506844
0.42364955
-0.39405364
-0.03328869
-0.12278225
-1.29961526
0.34017316
-1.46470606
2.04258990
0.34711680
0.13537993
0.37001252
1.61476386
-0.75221819
0.23713261
-0.06726378
0.03575695
-1.36714923
-0.56449795
-0.63289630
-0.86005557
0.28345424
0.81039983
-0.73797780
1.33702385
-0.75442523
1.07393944
1.59604120
-0.31100300
-0.51632780
1.61753559
-0.62659103
-3.17231655
-1.21993077
-1.78596294
-0.44883314
0.23100294
-0.56665385
-1.36178124
0.02568648
0.11423221
1.04134905
1.16396153
0.12376471
1.59821928
0.52128106
-1.89020669
0.40889308
0.89218986
0.83622903
1.16588509
0.54802483
0.29333171
-0.91345787
0.90283567
0.06751514
2.09908080
0.03066873
1.03084528
-0.34568277
-0.52470237
1.65844333
-0.53767306
1.12397897
0.32016784
0.86745250
0.14130834
0.22256286
-0.68274486
0.07872594
1.34299290
-1.07357287
-0.34498915
0.98050314
0.96666807
-0.23936856
0.73653686
-0.73734504
1.54369509
0.76843667
0.06930253
-0.43136701
2.02156687
0.75768226
0.35041651
-1.39735579
-0.46205375
1.30830562
-1.27071333
-0.11279030
0.01463913
-2.00834465
-1.35000014
0.83096242
0.44290936
1.16162527
0.22960904
2.22401357
0.99257344
0.21555069
-0.68938458
1.11660421
0.13809314
2.52624726
0.27085549
-1.03655529
-0.02628651
0.19164103
-1.52673805
0.59353572
0.83390611
-0.85949594
-2.38711047
0.22427936
-1.48014200
-0.38883916
1.72054195
-1.07712805
-1.28304732
-1.01311100
2.57907057
0.32080203
0.38182613
0.53141350
-1.39036393
0.00705963
0.64909965
1.64842045
1.80342150
-0.84442592
-0.48094240
0.27141196
1.15450704
0.69694722
0.27574337
0.77115238
1.87129128
-1.55164301
-0.52128512
0.70839864
-0.47229359
0.29610237
-0.87989622
-1.17900550
0.25904101
-2.24448848
-1.41638947
-0.61969054
-0.58876169
-1.30424297
-0.12483627
-0.54968649
-0.22721654
-0.48099452
2.41678739
-1.03039372
-1.14734995
-1.78418863
-0.61527854
-1.02607644
2.02133608
-1.16537476
0.28794208
-0.79380381
0.07623159
-0.29551926
0.92475635
0.67827660
-0.48125404
-1.75471234
-0.14597689
0.27800831
0.71642697
-0.27432793
0.70675755
0.38395843
-0.83923030
-0.90532929
0.19992869
0.69305050
0.72714019
-1.29403484
-1.09080267
1.22485602
-1.38267541
0.06223121
0.56883597
-1.85838890
1.89561236
-0.90745306
-0.70785230
-0.45474511
-1.49736309
-0.15292971
-0.62054372
1.05544627
1.42527258
-0.95592344
0.43315119
1.43583333
0.83007574
-0.02981493
-0.13378324
0.21466710
0.69582188
0.21988118
0.41271165
0.70652616
1.76030529
0.08969395
0.52112240
0.62704772
-0.37324736
1.33390415
1.36679614
-1.63383400
-1.72227418
0.96342868
-1.27029788
-0.41939574
2.19341969
0.76247388
-1.68933129
-0.16820176
-0.24321173
0.17756568
-0.27895272
-1.83330595
0.73960310
-1.18568170
-0.77053541
-0.35710171
-2.04393291
0.35801911
-1.11274683
-0.25695127
0.19012125
-0.70093054
0.09413308
-1.01473892
-0.29300621
-0.30979797
-1.85659206
-0.23114149
-1.40655899
-0.36859992
-0.78333312
0.16649155
-0.43909577
0.63763082
-1.57841933
-0.73527282
0.97332996
1.08436453
1.59801066
-0.31983319
-0.64743614
-1.07147849
0.82767570
-1.43280017
-0.76440567
-1.15262592
2.02020478
-0.49300361
-1.95204508
-0.00606164
0.71679229
-0.79243904
0.37837625
2.52005672
0.63121563
0.13114974
-0.12569608
-0.55758291
0.15032347
0.51016217
0.43597928
1.67738712
1.93287706
-1.00237370
0.42260534
2.11250544
-0.37045944
-2.66058612
1.92443609
0.66515940
0.34674764
0.10452029
-2.02900219
-1.20684922
-0.95420533
0.84839344
1.14959180
0.98588830
-0.56444001
-0.61380714
-1.38279271
-0.57042605
1.48776901
0.33855537
-0.15193340
1.21032214
0.04227739
-1.59559345
0.94634712
-1.31744087
1.30768287
0.79767072
2.28534365
-1.34757686
2.74491024
-0.87414157
1.92570412
0.88048118
1.86385906
-1.39350712
-0.62640107
-1.06401765
-0.91456175
-0.76100117
0.52925730
0.69845295
0.49784517
-1.64270747
0.24098876
-0.72740120
-1.00412858
-1.33236516
-0.69931632
-1.24462795
-1.08889067
1.37549841
1.09733808
-2.12176657
-0.06556593
-0.16801096
-0.30714551
2.29809046
-0.05956532
1.00442636
1.77550614
1.23293352
0.25161281
0.60109866
-0.87474859
1.27001727
-0.75405401
-0.21889490
-0.41591117
0.19060203
0.98029453
-1.85853767
0.12770708
-0.90207624
-1.03326142
0.21702512
2.01780033
0.79363060
1.19394708
0.71105850
-1.47648275
0.47133929
0.69617569
0.06842877
0.61892182
-0.15312600
-1.43575037
-0.69719684
1.31593132
-0.23064245
0.15942752
1.87343276
0.43173614
1.07741821
0.58967161
-1.29198539
2.27846289
0.74540055
1.47864389
1.28487563
-1.66304648
-1.11819410
1.29710734
0.36488584
0.81331712
-1.68302608
0.40296865
-0.33309755
-1.35281730
0.78773820
1.80478847
0.12589379
-0.48519817
0.63449061
-0.66861969
-0.57945073
-1.15214622
0.88813955
-0.92674637
0.21760206
-0.19176975
-0.60522676
-1.11892033
1.44644368
-0.48823869
-0.79231656
-1.72814846
2.08340669
1.51741636
-0.10141251
-0.91260099
0.26624545
0.37763256
0.10409619
-0.76794672
0.12678286
0.89426261
0.56100684
-1.21752846
-1.88264382
-0.76568186
-0.19816265
-0.79389524
0.88029468
-0.32916528
1.16815889
-1.32185447
-0.25476414
-0.32878029
0.55863714
-0.31470546
1.25230944
-0.47692448
-1.04313874
0.56263500
-0.59609735
0.64131409
-1.65750349
-0.09384190
1.02199531
1.26775634
1.04380941
-1.07561362
-0.14244609
0.01500923
0.45588073
0.67721570
0.61908531
2.44128394
-0.96048152
0.18659492
-0.03610179
-2.07882833
0.36933506
-0.08615714
-1.21755326
-0.37345389
-0.07282631
0.44161150
0.27126989
-0.30623800
0.77692741
-1.39396942
-0.32723665
-1.29994822
-0.89050579
0.58979219
-2.38836908
-0.41262686
1.14535117
0.00650457
0.35314393
-0.87078655
-0.14163598
-1.98143649
-0.57369202
0.52228594
-0.49170470
1.06926489
0.05246733
-1.46919703
-0.36661217
0.53368598
1.39600694
-1.97768724
0.04733952
0.97185773
-0.86877495
0.30726489
-0.22158307
0.23072277
-0.66609782
-0.79686350
-0.05483694
-0.77624750
-0.88942760
1.68238604
1.01776338
2.72507524
0.50966233
0.15144099
2.26386356
0.32216564
0.06113809
-0.58110523
-0.74659401
-0.18196300
-1.09500039
-1.93160844
-0.45922485
-0.65519798
0.15967950
0.85845774
-0.10883027
0.11282511
0.37057754
-0.62185931
0.25022525
-0.07586984
0.79227430
1.00179887
0.42225039
1.20708704
-0.95425767
0.62834263
-0.31702551
-0.95501482
1.42064154
0.24152361
1.66052592
0.37132007
0.03757334
0.21835512
0.74740219
1.02765262
0.20962265
-0.45689487
-1.06358933
0.38715976
-0.52696723
-1.09775186
-1.12386477
0.25311959
-0.61857468
0.74290681
-1.47165239
1.03776050
-1.09045804
2.57096481
1.28432214
-0.74751776
-2.47864676
-1.58888662
-0.88515061
1.04062784
-0.56517553
0.56294131
0.25976998
0.11105309
-0.75805235
-0.56695020
0.34119338
0.12664112
0.19621696
0.01404103
-0.16590947
-0.90147024
1.66313946
0.43382987
0.35315445
-2.09075570
0.58028013
0.18790674
-1.33078527
0.02044224
-0.24934603
1.15201104
-0.09829585
0.45783982
-0.91212744
-0.66936010
0.29302052
-0.74638468
-0.91705680
0.17652217
0.08631837
0.09546083
-1.72726345
1.67138314
-0.16848175
0.78741276
-0.65661150
0.98954844
1.42863393
1.21774244
-0.41135845
0.31976077
-0.06335041
0.58660102
-0.07258895
-0.59996957
0.60644954
0.80843091
1.88179362
-0.04208641
1.45359647
-0.56999958
1.63919985
1.03494620
-1.30458844
1.21967304
-0.27321848
-1.27085340
-1.07558632
-0.55689090
0.35154903
-0.39835349
0.46474805
-0.52176940
0.99901497
1.06704032
0.38030186
-0.30290550
0.67287999
1.32443011
1.28170383
-2.07875156
-1.10741413
-0.44760689
-0.42573175
0.76117039
0.29894105
0.05555772
-1.48237991
-0.45458585
1.67391932
0.53289145
-0.97041190
-0.24961486
0.13736564
1.52283692
-0.72003412
0.03022182
-0.03939248
0.74130577
-1.47113752
0.35388118
0.32451507
-0.77652073
-0.31025496
-1.33145344
1.58997500
1.10375893
-0.85528421
-1.04921293
-0.37890980
0.14321095
-1.56087005
0.09359000
0.12694828
-0.36006695
1.51515150
-1.00197101
1.23719835
0.41000414
-1.86955118
0.28988364
1.27230442
0.63960779
-0.90919065
-0.11006466
0.91991150
0.34367096
-0.87258744
-0.76266015
0.53513163
1.71951377
2.04829860
0.69234616
-0.21649353
-2.21153140
-1.20298886
-1.04685700
2.08292866
1.43716908
-1.81089258
-0.24955276
1.20213103
-0.79534227
0.31410757
0.97395450
-0.97111142
0.89489591
-0.69812107
-1.29240739
0.50731689
-2.11211228
0.84201920
0.31242600
1.23562598
1.42549598
0.67146832
0.56329447
0.12891430
-0.55728161
-0.58574116
1.00257552
0.81467253
-0.53097481
1.35446560
-0.92130464
2.42011094
0.35011685
-0.86372757
-1.28452730
-1.16750073
1.03632700
0.22903973
1.16382718
1.35974598
-0.37495869
-1.23166931
0.81241018
-0.56052840
0.33271256
-0.84492695
-1.10617018
2.41067696
-2.40360355
0.12878604
-0.64776373
-0.30151176
1.98391199
0.06543714
-0.58303154
1.02767575
1.37693989
0.28039327
0.98884422
-0.59965473
0.12999827
0.67364180
-1.90538514
1.39677095
-0.17245896
0.87162298
-0.89621025
-0.31682438
-0.94730926
1.02452183
0.87995625
0.27221480
-2.35385847
0.00312438
-0.43052769
-1.47717702
0.76329488
0.31590262
-1.36664271
1.28221774
1.41068196
-0.05019336
0.36097252
0.66668648
-0.74184531
0.41320905
0.28574055
0.16833702
-0.47650057
0.07672255
-1.45873785
0.39071962
-1.27838194
-1.09192312
-1.37468791
1.39072120
-0.62815815
-1.38002217
0.15653330
0.46306068
0.36340851
-0.48634797
0.63262999
1.76930404
-0.35532147
0.07621989
-1.18472338
-1.16885746
-0.94271642
0.44160762
-1.24859035
1.45896959
0.16219790
2.17351508
1.49693537
-0.96456707
-0.05615485
0.40749076
0.82611471
0.45704797
-0.15715623
0.71105146
1.03614902
-0.22005257
1.21594048
0.19744039
0.16602947
-0.18954146
0.64523679
0.04935347
-0.06649744
-0.12126861
0.34666511
-0.11256657
1.37780440
0.54113674
-0.50109220
-0.44656035
-1.57859397
-1.30452371
0.14656866
-0.19104986
0.01421258
-0.31567430
1.45973682
-0.86550140
-0.40026298
-0.47629324
-0.79532027
-0.96768796
-1.40168309
0.60368419
-0.15508091
-0.18478805
0.79824704
-3.08745289
-1.18555331
-0.83250850
0.76180613
0.97327322
-0.43686476
-0.31845060
-0.28504577
1.12521958
-0.96341580
-0.08696222
0.87891477
-0.07562154
-0.39363962
-0.03638728
-1.09249175
1.51654220
-1.12666225
1.07588124
-0.32148501
-0.23253591
-0.25429574
-0.87326974
-1.59378076
0.31357434
-0.55316198
-1.79059458
-0.68465567
-0.08101938
1.00942993
1.14221084
0.02772092
1.98729026
1.77077055
-0.53019279
0.35481140
-0.38388544
-0.37089121
0.18178834
0.89239562
0.27378583
1.38712871
-0.58445323
0.38697881
0.60749179
0.05031857
0.36509815
-0.99502522
-0.68013000
-0.78883153
0.41565645
-0.49218529
0.59395778
0.10156883
-0.19580489
-0.60867107
-0.88959098
0.29296476
0.54914021
-2.97573853
0.77069056
-0.85619330
-0.57657743
0.35411105
2.20955849
-1.04903591
0.11025833
-1.12704992
0.99628055
-1.37375927
0.88865924
-0.52639496
-1.32638574
-1.06236506
-2.43175173
0.32353792
-0.00008698
0.02405298
-1.67375398
-0.68794483
0.08434298
0.52674723
-0.51270717
-1.30700564
0.92819786
-1.39729142
-0.79031760
-0.73546368
-0.27593929
0.81514239
-0.55696803
1.48477864
0.85509229
0.82097018
0.90332490
0.43014681
-1.43001986
-0.63415492
-0.17147788
-1.25342727
0.31894901
1.64138985
0.15916903
-2.49377489
1.13471353
-0.18189295
0.94550765
-0.44011429
-0.34246826
-1.30109191
-1.49333513
-1.27729785
-0.36637112
-0.62923622
0.35036182
0.29295218
1.05355084
1.11291683
0.19989741
-0.45534721
-0.18200652
-2.49544954
0.81965154
0.04954349
0.70088625
-0.87616605
1.06070244
1.32246661
-0.15646613
0.07169833
-0.02642769
-0.00151953
-0.84360272
-0.19253547
-1.35263205
-0.09485686
0.15296780
-1.07484066
-1.56401539
0.41403970
1.66321015
0.19986877
1.02346551
-1.40527284
2.06386042
-1.61380303
-0.56432855
-1.12300074
0.17903860
1.27091229
-1.19807601
0.95189911
-0.59841686
-0.08931524
-2.49976349
1.49545205
0.28456959
-0.07586854
0.08910751
-0.60762620
1.91556621
0.20898806
-0.24572369
-0.62314600
-1.18496263
-1.19036961
0.35669118
0.65596384
-0.16306518
-0.62319440
-0.27257609
0.43330705
-2.03652930
-1.02447724
0.27399933
0.57829750
-0.60564786
-0.29007685
-0.90991151
-1.14276004
-0.48874897
1.11856103
0.93915910
1.38692987
-0.11980072
-0.57061738
-0.61918890
-0.56231046
1.71995139
1.46581733
0.03929127
-0.70724416
-0.51604140
-0.28008702
0.54389161
-0.48588729
-2.41299176
0.46261016
-1.01430082
-0.50707954
0.87302005
0.90324855
-0.05507674
-0.40750197
-0.89485538
0.18540621
1.16202807
0.98301959
-0.69363534
1.52457261
0.63170362
0.10546032
-2.06965280
-0.10884500
0.33777580
-1.26709318
-1.17848444
-0.77181888
-0.68767715
-1.67576420
0.02622228
0.23728654
-0.74978811
0.01639118
-0.17742312
-0.51203763
-0.13863082
-0.42281628
-0.16841154
-0.47476500
0.00949948
-0.40412796
-3.23087096
-1.46692562
0.16572848
0.48294938
-0.01956577
-0.86701655
0.12936163
0.24298832
-1.25399816
-0.13336200
1.82557344
1.67103839
-0.32780188
-0.54369396
-0.93392253
-0.99815583
0.50512952
-0.83885479
-1.02416360
0.85944575
-0.59203923
-1.16027892
-1.64796162
0.78568423
-0.94108272
-0.53829145
1.32918584
0.08463405
0.92430568
-1.50869119
0.24105641
0.10548926
0.05331400
-0.22876433
0.98386502
0.10256846
0.17900388
-2.19415689
1.91619813
0.33283222
-0.03529172
-0.69310522
1.09756649
-1.14189124
-2.24691057
1.05249214
0.99941725
-0.31916860
0.19474740
0.19869077
-3.26603580
0.59219384
0.76405734
-0.74801785
0.26706046
0.96354765
0.77134562
-0.70587230
-0.44207463
-0.34875333
-0.43063012
-0.05474323
0.13355410
-0.58882070
-0.27751467
-0.82762027
0.72360820
1.36703861
2.15395355
-0.14860375
1.75639462
-1.43097866
-0.16651213
0.29830226
1.58324230
-0.01288357
-0.63373852
0.82503343
1.64017391
-0.16941014
-0.00852481
-0.49265540
1.99013078
-0.71184295
-0.16123377
2.51120448
1.27815711
-0.83074468
0.35678339
0.84784722
-1.34302759
-0.84116113
-0.83677030
1.08979690
-0.70904571
0.55325687
-0.40928897
-0.87090778
-0.91877890
-0.43004987
-2.12014389
-0.92780662
-0.26214281
0.39467958
-0.04759130
1.35069704
-1.10440242
-0.27457762
-1.49734843
0.30791682
-1.80026329
-0.29540640
2.41604137
0.54220188
0.12743467
0.43371853
0.87434822
-1.97187793
0.23135673
-1.41575992
0.02663870
-0.50615007
-1.12249517
-1.76147366
-0.92688292
1.22082579
1.67102408
0.21604224
1.02887523
-0.59696800
-0.33018675
-0.36686084
1.12528694
-0.44512072
0.30470407
-0.12334515
-0.20569648
0.43587577
-0.67704290
0.53278047
-0.85989934
-0.04375142
0.13286482
0.50521928
-0.49118206
1.76176202
-2.22982216
-0.34389895
-2.07887149
2.49115729
0.75475186
0.33379704
-1.17597628
0.53599507
-0.10925611
-0.86990845
-1.23018992
2.42349744
1.61431360
-0.10140598
-1.47414291
0.43022078
-2.49549413
0.24703689
-0.46188468
-0.74512309
-0.19723172
0.15554754
-1.41423547
0.46580943
0.88960654
-1.47505009
-1.05928004
0.10705235
1.82256162
-1.29690611
1.88325131
-0.55378944
0.58476359
-0.75361300
-1.78786278
-1.11428916
-2.38014531
-0.27542010
1.28655481
-0.46260545
0.65268981
1.20371377
-1.08699429
-0.48138234
-0.70957172
0.25227484
-0.41181433
1.17111468
-1.58353603
-0.30261725
0.12236362
0.90409464
0.18422227
-0.90660191
0.33837828
2.18083382
2.06453395
0.45832673
1.94501305
-0.23045264
0.87096494
-1.44045508
1.56961334
-1.22997212
0.25910518
-1.25712407
-0.26279038
-0.58676362
0.69749171
-1.59947586
-2.56094265
0.40819144
1.44899392
0.04956647
0.82038891
-1.09977865
0.80701494
-0.52108419
-1.23960888
-1.07957566
0.54549646
0.04742322
0.33411843
-1.51682150
-0.52100426
0.06927621
0.96941787
1.57907379
0.62588072
0.13900208
-0.61637187
-0.84530628
1.14386666
2.52768707
-0.16200659
0.05467356
0.27958414
-0.24695578
-0.42033815
-0.57084632
0.81774288
0.28123936
1.48393178
-0.88090676
-0.17461836
1.25755584
0.87581629
-0.85372770
-0.76644939
0.84140503
2.23681569
-2.28644967
1.19994271
-0.28767672
1.44326997
-0.34306118
0.84490585
0.26558325
-1.13415754
0.33254182
0.33547369
-0.07898931
1.67675292
-0.57216060
0.36897948
-1.76106584
-0.10895004
-0.73020470
0.04960781
1.15985692
0.24933223
-0.15872848
3.20977306
0.22786938
1.65199101
1.24442172
-0.45608303
-0.40202463
-0.30054712
0.47754353
-1.14200997
-1.06665826
0.56391150
-1.06788731
-0.33829740
0.06827207
-0.77052462
1.34669471
2.15302706
0.22995247
1.08186233
-0.28938773
-1.09766889
0.69431144
1.25549102
0.86496580
0.09562044
0.48934552
-0.89036328
-1.14146066
2.73367882
-0.82884759
0.82555550
-1.43012011
-0.50941145
1.15671504
0.48902893
-0.95115334
0.44490328
1.52769828
0.09996812
1.19497561
0.31481388
-1.43019509
-0.41863728
2.02839971
-0.87808436
1.60803950
1.19585669
0.94177669
-1.15035927
-0.36810866
-0.63743281
0.46910176
0.41309845
0.98220289
0.94153756
-1.74823594
1.84605253
1.78214109
0.73494065
-1.19695437
0.60412323
0.92161435
0.67869675
1.62197375
0.42842606
0.85107696
1.33569920
0.91715252
-0.86685044
1.39581883
0.64179081
1.53552794
0.88763356
-0.80803329
1.42034662
-0.60806930
-0.77908838
0.60184872
0.05683482
-1.99775457
0.05900709
0.78376424
-2.35055637
0.70356721
0.42114010
-1.29794562
0.44591445
-0.10548550
-0.10597681
0.25590059
0.09185428
0.43987215
-1.09141219
-0.14406580
-1.66655207
0.49994421
0.99335641
-0.63064057
0.28659680
-0.45383948
-0.70027393
-1.26959848
-0.18615274
-1.50247979
-1.69719326
1.68440008
1.67570662
0.26192608
0.10888082
0.73110300
-1.11880231
-0.76486629
-2.26252294
1.60136104
0.34408563
0.95232809
0.19983470
0.09711799
-1.44572222
1.11562979
2.21781468
0.22011875
-0.49015921
0.21811837
0.69061863
-0.67553926
-0.37959182
0.24645182
1.59673619
-1.87001932
-0.69717121
-1.44437873
-1.08504260
2.01409268
-0.05664276
-0.27313676
-0.36316651
0.70135659
-0.45889750
1.22239113
0.39298812
-0.23483199
-1.32177353
0.27428642
-0.47634059
0.28488427
0.58285558
0.49411303
0.05331708
0.29283306
-0.11655363
0.41487163
0.22380807
-0.70233440
-0.47814119
-0.49997738
0.93295461
0.02897975
1.35558760
0.29283464
-1.32088542
-0.90053028
0.15635610
-0.43742386
1.33905864
0.73115832
-1.12040424
-0.35619903
-0.66232795
0.21650779
0.11400387
0.21979871
-0.69826108
0.95059192
-0.88963962
-0.59538037
0.12661266
0.58318990
-1.38089859
-0.63562125
0.49696258
-2.50318789
0.85196692
0.30076367
1.21463263
0.04385468
-0.56708533
-0.55076736
1.22602785
-3.48093176
0.06363419
-0.63956094
2.71584105
0.06706648
-0.11728963
-2.18065357
0.44616854
0.26468387
0.19348668
1.00091243
3.64265108
-1.53099620
0.53743684
-1.14217257
1.30981147
1.33955061
-0.23344806
-1.13753688
0.71068215
-0.49653086
1.87442422
0.35843503
-1.60923314
0.97777772
-0.13103846
0.32385641
0.26338437
-2.27130342
-2.58328176
-2.09092164
0.28552973
0.10613283
-0.41256171
0.24367549
-0.77171791
-1.60158241
-0.70642507
-0.30677789
-0.05672967
-1.65289044
-0.37591761
0.02448302
1.15777552
-0.93576258
0.71277869
-1.94828558
0.01200546
-0.91905975
-0.68793631
-0.49190989
-0.83531910
-0.85185331
1.46072483
0.11516554
-0.03477836
-0.45597962
-1.03767586
0.70103747
0.72933602
0.84828722
-1.94981647
1.69751048
-0.68141150
0.87945759
0.05340432
0.72404844
-1.85561967
0.55142778
0.82064945
1.47251678
0.77460158
1.18649864
0.49493441
0.35096377
-0.95113152
-1.09691072
1.29321516
0.26923636
-0.80822945
-0.04278557
-1.64654315
-0.57027912
0.82147932
0.22260605
0.15056862
-1.37309551
-0.02084460
-1.02692199
-0.83559453
0.70702153
-0.29620180
0.06846038
0.82598203
0.94721657
1.28503633
-0.55678302
-1.65142059
-0.66744500
0.23971730
-0.63982320
0.15956438
0.25965893
-0.39620170
0.97350144
-3.07364559
1.04970598
0.13961583
-1.28658259
0.68425018
1.40114260
0.90879583
-0.96260744
-0.06332957
0.03464671
1.02564394
1.58598161
0.19142325
-0.09059529
0.13174424
0.23714989
0.02569561
0.64139116
0.89312238
1.23185229
-1.12190783
0.91994983
-0.78583151
1.23929191
1.33679247
-0.81754780
0.65107995
-0.24647643
-0.03668273
-0.89086658
0.56758177
0.47033063
-0.09674198
0.69157887
-0.52281332
0.25912231
-0.43583551
1.30171406
-1.33836329
0.34074965
1.48908579
0.63862091
0.95957172
-1.41986072
-0.53176099
2.27816987
-0.32292986
-0.04670402
1.52922213
-1.02710521
1.74469042
1.19824505
0.71226209
-0.54023004
0.25131387
-0.85829520
1.66898620
1.59169924
-0.51417172
0.80656254
0.45741540
1.81781137
-0.74532688
0.90907347
-0.83089411
-0.78097904
-0.56918412
1.75421369
-1.98993015
0.37032664
-1.29145145
-1.04940462
-1.64441109
0.88717717
-0.45477822
-0.04132355
-0.43953332
0.28106579
0.90641034
0.37908247
-0.79698247
0.50362498
1.64477539
-0.32996309
-0.69437587
-0.75357670
-0.97623509
-0.08693258
-0.46275291
0.04758893
0.01266580
-0.78457862
-1.19928706
-0.25210410
-0.59096062
0.53576189
-0.35451040
0.25893366
-0.57693517
-0.68820727
1.01297534
-1.69113839
0.17838381
0.00590826
0.58464724
-0.50074595
-0.97433239
-0.93735802
1.22551525
1.37981236
-0.23748781
1.17862022
-1.80688810
0.27627620
2.59063029
1.21892095
0.91903985
0.62674785
1.68934548
1.42798340
0.52968180
-2.20208764
0.10658510
0.15527214
0.73550808
-0.87993217
-0.68358910
1.05384040
-0.36785278
0.41878244
-0.07432943
-1.06137753
2.00983810
-1.92211044
-0.44781032
2.48487878
-0.99837476
-2.00972056
0.74079156
-0.50410956
0.74980491
0.44506544
-0.15509140
1.04048312
0.32997319
-0.65508997
1.23299503
0.77238297
0.99231714
1.35476887
0.50206548
0.45844334
-2.53243613
-1.58953631
-0.54798257
1.43249345
0.21237855
0.59452379
-1.09007144
0.87576771
0.03499821
0.41452041
0.82096070
-0.87623447
0.10323495
0.65733260
-0.20076948
0.63158035
0.63056463
0.00946415
-0.85694104
-1.49403381
-0.50087088
-0.58993697
1.38151622
-1.52680886
0.18965839
-2.15236712
-1.51969016
-1.03371322
-0.48825195
0.66451228
2.34347272
-1.09590924
-1.27143502
0.22391748
0.29403082
0.20711313
-0.18209180
-0.31650588
-1.68561697
0.21392985
0.99596637
-0.44374201
0.37725893
0.07645658
-0.25611237
-0.59888935
-0.58694881
-1.98389733
-2.92139292
1.16136861
-2.09510541
1.41545570
-0.51818562
-1.50290596
-0.06632904
-0.49009278
-0.29616365
-0.88543713
0.12225103
2.27195358
-0.60803431
-0.02961750
-0.01966277
0.70521522
0.71235853
0.10027282
1.10022247
-0.69904006
-1.81339812
1.65592527
-1.78151965
0.05686410
-0.84500194
0.90934545
0.76795161
-0.12871775
-0.25939554
0.64985836
-1.37100160
0.39273316
-0.18828768
-1.32280242
1.53257418
0.39778972
1.38705492
-1.20806921
-0.33844715
-0.90091741
-0.89579910
-2.19196987
0.70045656
-0.22152647
0.03504198
-1.11386979
-1.24715054
-0.82732701
-0.48319286
1.31230080
1.63071966
-0.57230258
-0.83575910
0.53059596
0.90070516
3.40946817
-0.45166364
-1.37873554
1.05625212
0.80110478
-0.89934766
-0.86403036
-0.71204352
-1.56574786
1.21369874
1.01391196
-0.00180952
1.08992815
0.39802161
-0.17723568
-1.59734738
-2.12252045
0.89804006
-0.65407598
-0.23247130
-0.25545937
0.49759823
-0.60610509
0.62023503
-1.52437556
0.27877468
0.26411459
0.85564315
-0.34017664
-1.03970253
-0.45801702
-0.55500853
-0.86208534
1.26252031
-0.29582629
0.34888607
1.59448504
1.95840454
0.57631820
-1.43713784
0.52338260
1.48172808
0.86782074
-0.59874773
-0.10617633
-1.70505273
0.67684615
1.57450151
0.36860475
-0.68077898
-0.71324801
1.63323879
1.00490272
0.67621404
0.33767441
-0.34088764
-1.97929573
0.39908686
-0.27839717
-1.16981518
-1.24017084
-1.26428330
-1.01944375
-1.46023619
-0.18635356
0.64101386
0.04870134
-0.80433333
-0.01803932
0.81198364
-0.06759691
0.58270657
-0.01175020
0.37125587
-1.37402225
0.29170695
1.08851111
-0.39892292
2.26537395
0.91409975
-2.63172388
1.27660346
0.27342978
1.25210178
0.21507564
-0.43587127
0.32384112
2.15848994
0.81216097
1.47044694
-0.54704779
1.12882376
-2.49778414
0.26368916
-0.99791068
-0.25995821
0.89709449
0.43396848
1.14300489
-1.30173635
0.39895824
0.55922526
0.38207635
-0.65250635
-0.51834244
0.86357260
0.05394359
0.67353487
-0.84582305
0.47074249
-2.17461443
0.63733160
1.10011601
-0.36045751
0.12829977
-0.81802952
0.62028354
-0.68854189
-1.15606618
0.20747447
0.07296589
-0.98185813
0.16717859
-0.09763334
0.33885944
-1.30941069
0.27662668
1.43280935
0.23884971
0.25231645
1.85150862
-1.81454635
0.68585318
-0.18545350
-0.72518605
-0.84086561
-1.21021342
-1.10852826
0.61140257
-0.75362200
0.03599924
-0.82417518
0.90341920
-1.83743024
1.30565023
1.23966467
-0.86156046
0.61218321
-0.68667907
-1.43022442
-0.47115543
-1.19135165
-0.88808864
-0.87811452
0.44211629
-0.25936887
-0.55817878
1.50240064
-1.48926985
-2.16645026
-1.37365901
-0.05511764
0.81361789
-1.85594201
0.07418790
0.61452729
-0.14298794
-0.28177768
0.50759304
0.17545609
-0.91038591
-0.68338168
-0.26845214
0.68527150
-0.25377336
-0.85209471
0.70789081
0.44759637
-0.54455352
-0.25736734
-0.45687905
-1.38825107
-1.57279968
-0.23201439
1.66946161
1.36049092
0.20363879
0.89343584
1.27642226
-0.86711079
-1.01072741
0.33995315
-0.17430942
2.46674418
-0.83952844
1.05874276
0.56912154
-1.15620124
0.64731830
1.98619914
0.03603524
-0.47679016
0.89559793
0.53098696
-1.30407763
-0.90675205
0.19961803
-0.27676958
0.10988721
0.24909566
0.31391251
-1.06197643
-1.21687686
1.45488977
0.40097341
-0.28177652
0.16274679
-1.58613598
-0.19124652
-0.41469923
0.17507651
-0.75731301
-0.49569261
-0.59488881
-3.27758145
0.22240224
-0.44578025
-2.06068230
0.71018660
-0.86573344
0.27393383
-0.76459074
0.56226587
0.46792126
-2.00083351
1.04761434
2.04747605
-1.00280559
1.93825030
-0.42228568
1.14380836
-1.01085806
1.06616747
0.15873885
-1.19014513
0.09550416
1.22042811
1.58178341
0.65579575
0.02071475
0.37433398
0.61385101
-0.41403937
-0.03181595
-0.09901538
1.09048402
0.36883664
-0.26890028
-0.93398052
-0.47259536
-0.91647333
0.56689233
-0.47329220
-0.97981966
0.97527122
-0.32196000
-0.23364165
-0.20221229
1.39273977
0.23442465
-0.74024475
-1.05939448
0.52835763
0.27085903
1.31839550
-0.06251097
-0.37091473
-1.06395888
0.17553590
1.12981141
1.11163092
-1.16571116
0.86366534
0.87353951
-1.75499916
0.43839470
-0.09205870
-1.76630831
-1.73546839
-0.59119356
0.33784419
-1.45837033
-1.25545859
1.81443954
1.83594418
1.09630799
-2.21080518
0.05303108
-0.23821180
0.36816564
-0.26188040
-0.49144399
-0.58045691
2.39397907
0.32416204
1.65093625
2.84372878
-0.15702531
0.32273254
0.61370969
1.40448153
0.09616547
0.72512573
-0.96620291
0.48455539
0.92426401
-0.24510944
-0.64564747
-0.09547812
0.11620742
-1.08609378
-0.89159667
-0.69647777
0.45580044
0.19558740
0.84670430
2.41319537
0.72767901
0.87577546
0.18651977
-1.21467113
1.24778152
-0.35116482
1.92115426
1.98736548
1.22786713
-0.30070606
-1.23762178
0.51689458
2.17149878
0.65075541
-0.11360566
-0.02887524
-1.81453347
-0.52268392
0.00739808
0.77223271
0.47467476
0.44675043
-2.56368828
0.09746751
-0.66762924
0.09236494
1.47554648
-1.79679251
1.48481679
-1.22801411
-0.86435354
2.24807930
1.58490860
-0.32578388
2.18695688
0.58772475
0.07046805
0.25875023
1.19444776
0.63936377
-0.36096945
0.50062072
0.03610689
1.93114579
-0.75476760
1.35573494
-0.34070951
-0.71250021
-0.25712165
-1.48053885
0.15949237
-1.14867663
0.28245974
-0.18194699
-0.82111478
0.21636994
0.87159961
0.28001744
0.35524526
-0.63231122
-1.44682467
0.58741176
0.83958292
0.67402256
0.28151566
0.34434903
-3.01690626
0.39559862
-1.71967566
-0.00950027
0.43163833
1.87135696
0.09436486
-1.09476972
-0.20313308
0.80532205
0.00693228
0.77209038
-0.59814817
0.62009823
-2.10585356
-0.23625503
0.38576260
-0.50874221
-1.22984409
-0.37763864
-0.40504563
1.41877007
1.01989949
0.73544514
0.95438659
-1.46956956
0.20854637
-2.70859480
-0.25874725
1.97200084
-0.29486421
-0.84860635
-1.69161189
0.77306789
-1.93473291
-0.52742857
-0.95021069
-0.15361685
0.44234574
-1.88841677
0.70198029
1.07791865
-0.55693299
-0.38149175
1.20898271
0.74069703
1.01412308
0.39048159
-0.70506537
0.21461181
-0.10592575
-0.62144661
-0.66239452
-0.83539391
-0.14135134
-0.81843954
2.21975183
0.88290757
0.85106647
-0.93204844
-0.60377371
1.45905530
1.76045454
0.99296534
0.11136913
-0.17208451
1.28375435
0.05028868
0.68543983
2.05452299
1.06844139
1.74486554
0.89160144
1.11666501
-0.58818465
-0.05174176
0.73947883
-1.57610118
0.85995591
-0.18470261
-0.23208529
0.43917319
2.05000949
0.02737083
1.51636517
0.17118633
0.72550172
0.72558832
1.78171015
-0.37803662
-1.14542818
0.78382069
0.75965518
-1.34182286
-1.11921370
0.91629970
-0.34087408
-1.32379282
-1.60166609
0.29242936
-1.77649856
-0.06492205
-0.51917797
-0.38497844
1.22212684
1.17762542
-0.97090709
-2.34045434
-1.35924375
-0.20767316
0.89073443
0.45513615
-1.30209863
-1.50237310
0.78868771
0.10259352
1.14208400
-0.63458872
1.14395833
0.20421317
0.31323996
0.24499281
-1.41996598
0.17867520
0.91835845
-0.88643003
1.22333610
1.62831855
-1.41194260
1.09026444
0.77531648
-0.14503677
0.92650259
-0.27687794
1.66784263
-1.53776157
1.47746265
-0.17925303
-0.29979295
-0.18378675
-0.09650312
-0.76482141
-0.34897390
0.42752677
-1.93725967
-0.57626837
0.08601968
-0.96174389
0.45213833
0.11623332
-1.01713312
0.14098462
-0.86496949
-0.01466343
-2.69064426
-0.23312357
1.19955564
0.72351122
-0.25228727
1.34056556
-0.90463221
0.48448858
-0.56158942
-1.67948043
-0.92098773
-0.14389728
-0.10517771
-1.38824463
-0.95141077
1.24137938
-1.52956390
-0.97327280
0.12311511
-1.51144612
-1.75833988
-0.01812852
-0.54850149
-0.04502032
1.13782632
0.62314802
-1.57745659
-2.68933916
-1.33303070
1.89056396
0.34272122
0.65838301
1.62024546
0.50741738
1.55130327
-1.38145292
1.20498526
0.44580179
-0.10461943
-0.56793100
-0.45293695
0.18698765
-1.02846861
0.25312841
1.29951370
-0.45343769
1.87557733
-0.01753627
0.04097221
1.87271225
-1.70672286
-0.32413536
0.59673995
0.34455270
-0.28289899
-1.48652911
-0.51304537
-1.71076965
-0.49830011
0.54296476
-1.30332386
1.14240384
0.44812816
-0.97752607
2.45101094
-0.61225277
0.48105305
0.59598261
-1.22196162
0.74828726
0.06319214
0.30018112
-1.54471385
-0.87883627
1.06301379
0.17010011
0.64845663
0.35275921
-0.37610731
1.17056918
0.77732581
-1.58268321
0.57851636
0.57877624
0.54253221
-0.13004042
2.56231093
-0.94665694
-2.08359265
0.48971885
-1.78624356
0.08932980
0.12756878
-0.81413156
1.21270323
-1.63424528
0.54819512
-0.43445364
-1.07453775
0.18472131
1.81583190
1.18374181
-0.78249186
0.39527997
0.88449466
1.13233507
0.31808248
0.00582730
-0.53038073
-0.94157344
-1.70113552
-0.75645626
-1.65703678
0.13742973
1.02578735
0.63970631
1.79657447
-0.13345924
0.54142404
-0.86592543
0.89773619
1.27781081
-0.62126416
2.27317381
-0.67446315
0.07781842
1.27069330
1.34516203
0.43649521
0.34191948
0.74988145
-0.09746148
0.35721865
0.07456684
0.07610269
-1.61297596
1.28562808
-1.42521203
-2.13804126
1.68422377
-0.65344507
1.03513157
2.76740575
-0.16934912
0.38194361
0.34092730
0.14216888
-1.98207045
1.20843971
-0.18278763
-0.67136192
0.84654266
-0.50215757
-0.43481508
-0.43471572
0.97607154
-0.19140162
-0.50660074
0.08018526
-0.36386651
0.80557549
-0.17550367
0.82986152
-0.56915927
-1.51472187
-0.56439924
-2.17054224
-0.85129893
1.72555137
-0.70930028
0.13847724
0.90203512
-0.36009702
-0.69225270
-1.01741970
-0.56220812
0.35281527
0.67230654
-0.35651922
-1.42481053
1.10903776
0.63316989
-0.69075382
0.53350067
-0.10338087
1.08085740
-0.25781435
-0.47757536
-1.32443714
-0.41999817
-0.22838615
0.07148592
1.11057091
-0.42218325
0.80075318
-0.52820945
0.26893741
-1.62071311
0.39696386
0.54059100
1.31188202
1.11406410
0.43786770
-1.11391807
1.03048790
-0.01889864
-0.09179623
0.24005002
1.98798859
1.22251284
0.21747130
0.85576570
0.08285454
0.93323064
1.86543798
-0.35202098
0.76814008
0.00008238
0.41924050
2.35438251
0.47634044
-0.49356470
-0.05024387
0.43366259
-0.28412181
-0.16247132
-0.01160517
-0.23304120
-0.75489891
0.48489276
-0.01769315
-0.51044750
0.10006419
-0.52269912
1.40782249
0.77831745
1.71590388
-1.15751755
-2.26319146
-1.34410703
-0.22849055
-1.50562251
-0.51187634
0.35694805
1.06674588
0.83782554
-0.40363950
1.43871844
0.55870193
0.53750974
1.17635930
0.97254163
-0.31726041
-0.70097429
-1.05010211
0.39654768
-1.43276143
0.12737671
-1.67399848
-0.95146668
-0.12054490
-1.49509776
1.25696635
0.73102134
0.03619996
-0.10134363
1.20231104
-1.16179013
-1.37411487
0.25118884
0.61173624
-0.29345509
-0.27726045
-0.31247416
0.14688812
-1.40463483
-1.36422992
2.17140412
0.38383636
-0.30281636
0.72342485
-1.26282418
0.87524712
0.23438881
0.71010739
-0.85530478
-0.91600996
-0.63567406
-2.94888425
-0.37760058
-1.32832432
0.14848344
-0.93730634
0.21606605
0.03405550
0.23012349
0.27828908
-0.39729401
1.77816653
-0.65287048
-3.09990335
-1.39327621
0.31149420
0.88708192
-1.15180779
-1.17610574
-0.48842120
-0.47991389
0.16350390
-1.90697491
0.00128590
-0.08888245
0.07229282
-1.69818103
0.28600708
1.14304471
1.66091025
0.62568760
-0.30662712
2.39827347
-0.52367741
-1.26709771
0.38834807
-1.73747325
-0.04996694
-0.54300588
1.42792010
1.26821434
-0.65260309
-1.14152598
-0.83298445
0.69415075
-1.56475270
1.32396197
-0.52047932
1.47756171
1.90498173
-0.03589951
0.18787330
-1.11630607
-0.16348211
-1.35772991
-0.01461509
-1.46231496
1.82167983
0.78312761
1.35247254
0.71495152
0.91251731
0.33978719
1.35776377
1.19611359
1.71813214
-1.47509301
-0.45515242
-0.41347897
-0.37204513
1.47775090
0.68226230
-0.54758042
2.33415294
-1.64401257
0.22531617
-0.46861356
0.46505141
-1.89175248
-0.61444050
0.52100062
-1.06709790
-0.99291217
0.54853511
-0.43238968
-2.51245689
0.99903834
1.16576457
0.86784375
-0.86151463
0.20710306
0.34172043
0.70700061
0.92811501
0.34809712
-0.50478297
0.84428227
-2.41807079
1.74300361
-0.63219798
0.62172788
-0.31857523
-0.74439698
-0.40802979
-0.87377745
-0.39497125
-0.75393808
0.79625529
-0.29485166
-1.56880248
-2.46791601
-1.27198780
0.27563420
0.29370013
0.36767778
0.14084303
-0.93168706
0.02031033
-0.01823055
1.43889189
-0.78365940
-0.67705631
-1.35814524
-0.27509221
1.05298018
-1.43108511
1.27562904
-0.25191054
0.74935585
0.22513184
-0.85883814
-0.34004292
-0.64772379
-0.49964267
-1.07163799
0.54777312
0.30714095
-1.12482262
1.69751871
0.67473227
1.58105731
1.38586128
1.46026886
-0.46342394
-0.47189650
-0.63131011
-0.63374448
0.35466072
-0.85687202
0.47738177
1.37298703
-0.78991365
0.66383624
-0.84679145
0.25337389
0.46560961
0.17096959
-0.39070475
1.76955771
-1.15442169
-0.14663297
-1.38800061
-2.43469238
0.84382010
0.91227663
0.38211209
0.04240999
0.94478816
-0.55824453
0.98310983
1.47459257
0.18949319
1.30720437
-1.67177939
1.07711422
-0.43509829
2.60235023
-0.87690538
-1.00531089
0.13739978
0.90385032
-1.28961158
-0.13635299
-0.01906454
-2.53730178
0.33294544
2.00568533
0.04935514
1.62239838
-0.42558861
1.38926566
0.74549544
-1.03341591
0.84174109
0.87713188
0.17223397
-1.27343369
-0.13003966
1.22347271
1.11591089
0.64073569
-0.36777771
1.68338072
0.35210988
-0.44070080
-1.55711555
1.45060277
-0.74981749
-0.03143280
1.79690766
1.40284276
0.51132369
-0.64039028
-0.71100032
1.99350953
-0.03926735
-0.97874683
-0.55769426
-0.67135149
-1.41739273
0.68240887
0.72458774
-0.08371930
-0.34243906
0.16699135
-0.72516096
-0.53585947
0.29852897
-0.18080637
1.61972499
1.37619507
-0.46283954
0.84045982
-2.67730665
0.86511594
0.58938420
0.09572375
-0.71672714
0.18865818
0.81471169
0.59032977
-0.96182138
1.20617497
0.97577965
0.57780772
-0.75501060
-0.35184303
0.92117393
-0.28108731
-0.74814892
0.48969197
0.13369194
1.52197039
1.00217903
0.40469056
-0.22845155
0.86078221
-1.84783685
1.58453286
-0.41799021
0.25898364
1.87758541
-1.17621124
0.16068669
0.91337419
1.88494265
-0.37333274
-1.72907615
0.17713690
1.14768958
-1.10481203
0.55868083
1.10508490
-0.19413908
1.97110510
0.19440456
-0.73734075
-0.52116162
-0.14704558
-1.98059070
-0.66884637
0.23816518
-0.03489716
-1.18384552
-1.00892687
0.84077615
1.23274446
0.60834759
-0.34498876
-0.64239824
-0.62276626
-1.42541957
-0.42811787
-0.61016250
0.58519894
1.67794943
-0.35930949
-0.89519960
-0.31621864
-0.03735334
-0.97237921
-1.22198772
-1.75969195
0.58639210
-1.90226996
0.56415004
1.08319521
0.90663826
-1.27649856
-0.63543373
-0.04446288
0.99979419
-0.64187139
0.30305377
1.52347541
1.05831194
0.44855353
0.50735182
0.40636975
-0.41187680
-1.46948099
-0.02773325
0.21440788
-0.54008341
-1.44472933
-2.29627347
-2.84063888
0.71640098
-1.00421715
0.86437422
-1.54005921
0.48604581
-0.14213446
-0.17112273
1.26861763
0.84047866
0.02246144
-1.00816393
1.37009239
0.26479268
-0.17743662
-0.10687359
0.74223006
0.46016553
1.48336887
1.19051659
0.60381758
-0.65154892
-1.46100688
-1.96553195
-1.64620626
0.45467746
-0.53548366
-0.48356861
-0.27993912
1.26808119
-1.18504035
0.12905951
1.36767137
-0.60573965
-0.53569788
0.52266431
-0.34426343
-0.25891516
-1.48563373
0.04635564
-0.66912621
-0.22063990
0.47563291
1.35350835
0.39460889
-2.99490666
0.12642422
1.47247803
-1.95397031
0.17679024
-1.62908137
-0.30834907
-0.11550374
2.68969560
-0.13339095
0.67365110
-1.15963697
-1.41973865
0.20608336
1.26440930
-1.72833669
1.94760644
-0.86060572
0.36765230
0.13073739
-1.11958873
0.40257543
-1.43789983
-0.89034218
-0.28161865
0.27650186
1.50161052
0.32622457
0.41968882
-1.37802589
-0.46027073
-0.08238807
0.87080348
-1.19707310
0.96932292
0.79625380
-0.29667222
-0.67338645
0.32124048
1.78745997
0.09232782
-1.47679222
0.28087899
0.68418998
-0.63591844
-0.24402498
0.45313165
1.73494267
0.31503001
1.50698972
-0.06161541
-1.04651213
1.30784452
-1.43642330
-0.33490917
0.85862917
1.52826393
0.98830289
0.68360746
-2.07573891
-1.96162689
0.23638314
-1.08278430
0.51176846
-0.98217720
-0.70931727
0.03561951
2.61742115
1.46698678
0.35039806
-0.03047077
0.36295113
0.60622197
-1.89575756
-2.41306448
-0.34270632
-0.02821220
-0.07668484
0.01183237
2.24112058
-1.46711600
-0.51461661
-1.97069907
-0.67089468
-1.39600623
-0.05071390
-0.20705438
-0.66445565
2.68421674
-0.82960415
-0.14392005
0.43664399
0.19032076
0.51581806
-0.11836479
1.43929410
-0.34680253
1.34424293
-0.63277572
0.39629534
1.50059974
0.07302013
-0.19998644
-0.87743556
0.22498141
-0.36879575
-0.05595825
-0.98285854
-0.79253232
1.47637951
-0.60280776
0.09009741
1.18179905
-0.15064895
0.38893813
-0.07949720
0.87747699
1.63432586
-0.69267589
-1.14207387
-1.10113180
0.05195531
1.00790286
0.25366679
0.12766562
-0.77181232
1.14079189
0.01639721
-0.19909090
0.54686648
-0.60355020
-0.78323627
-1.74026835
2.66070986
-0.41708171
-1.75328326
-1.05121076
0.45666939
-0.27314669
0.95993108
1.75092101
-0.80438513
0.81233239
-1.06668365
-1.30816984
-0.35250986
0.38528514
0.62050349
-1.94594383
-0.83420652
0.06799448
1.24782801
2.62316632
-0.41490936
-1.83790994
1.53297734
0.11256540
-1.20306432
-1.91078162
-0.53492612
0.11991604
0.93751574
0.35843253
0.87968767
