1000000000000000
1000000000000000
1000000000000000
1000000000000000
1000000000000000
1000000000000000
1000000000000000
1000000000000000
1000000000000000
1000000000000000
1000000000000000
1000000000000000
1000000000000000
1000000000000000
1000000000000000
1000000000000000
1000000000000000
1000000000000000
1000000000000000
1000000000000000
1000000000000000
1000000000000000
1000000000000000
1000000000000000
1000000000000000
1000000000000000
1000000000000000
1000000000000000
1000000000000000
1000000000000000
1000000000000000
1000000000000000
1000000000000000
1000000000000000
1000000000000000
1000000000000000
1000000000000000
1000000000000000
1000000000000000
1000000000000000
1000000000000000
1000000000000000
1000000000000000
1000000000000000
1000000000000000
1000000000000000
1000000000000000
1000000000000000
1000000000000000
1000000000000000
1000000000000000
1000000000000000
1000000000000000
1000000000000000
1000000000000000
1000000000000000
1000000000000000
1000000000000000
1000000000000000
1000000000000000
1000000000000000
1000000000000000
1000000000000000
1000000000000000
1000000000000000
1000000000000000
1000000000000000
1000000000000000
1000000000000000
1000000000000000
1000000000000000
1000000000000000
1000000000000000
1000000000000000
1000000000000000
1000000000000000
1000000000000000
1000000000000000
1000000000000000
1000000000000000
1000000000000000
1000000000000000
1000000000000000
1000000000000000
1000000000000000
1000000000000000
1000000000000000
1000000000000000
1000000000000000
1000000000000000
1000000000000000
1000000000000000
1000000000000000
1000000000000000
1000000000000000
1000000000000000
1000000000000000
1000000000000000
1000000000000000
1000000000000000
1000000000000000
1000000000000000
1000000000000000
1000000000000000
1000000000000000
1000000000000000
1000000000000000
1000000000000000
1000000000000000
1000000000000000
1000000000000000
1000000000000000
1000000000000000
1000000000000000
1000000000000000
1000000000000000
1000000000000000
1000000000000000
1000000000000000
1000000000000000
1000000000000000
1000000000000000
1000000000000000
1000000000000000
1000000000000000
1000000000000000
1000000000000000
1000000000000000
1000000000000000
1000000000000000
1000000000000000
1000000000000000
1000000000000000
1000000000000000
1000000000000000
1000000000000000
1000000000000000
1000000000000000
1000000000000000
1000000000000000
1000000000000000
1000000000000000
1000000000000000
1000000000000000
1000000000000000
1000000000000000
1000000000000000
1000000000000000
1000000000000000
1000000000000000
1000000000000000
1000000000000000
1000000000000000
1000000000000000
1000000000000000
1000000000000000
1000000000000000
1000000000000000
1000000000000000
1000000000000000
1000000000000000
1000000000000000
1000000000000000
1000000000000000
1000000000000000
1000000000000000
1000000000000000
1000000000000000
1000000000000000
1000000000000000
1000000000000000
1000000000000000
1000000000000000
1000000000000000
1000000000000000
1000000000000000
1000000000000000
1000000000000000
1000000000000000
1000000000000000
1000000000000000
1000000000000000
1000000000000000
1000000000000000
1000000000000000
1000000000000000
1000000000000000
1000000000000000
1000000000000000
1000000000000000
1000000000000000
1000000000000000
1000000000000000
1000000000000000
1000000000000000
1000000000000000
1000000000000000
1000000000000000
1000000000000000
1000000000000000
1000000000000000
1000000000000000
1000000000000000
1000000000000000
1000000000000000
1000000000000000
1000000000000000
1000000000000000
1000000000000000
1000000000000000
1000000000000000
1000000000000000
1000000000000000
1000000000000000
1000000000000000
1000000000000000
1000000000000000
1000000000000000
1000000000000000
1000000000000000
1000000000000000
1000000000000000
1000000000000000
1000000000000000
1000000000000000
1000000000000000
1000000000000000
1000000000000000
1000000000000000
1000000000000000
1000000000000000
1000000000000000
1000000000000000
1000000000000000
1000000000000000
1000000000000000
1000000000000000
1000000000000000
1000000000000000
1000000000000000
1000000000000000
1000000000000000
1000000000000000
1000000000000000
1000000000000000
1000000000000000
1000000000000000
1000000000000000
1000000000000000
1000000000000000
1000000000000000
1000000000000000
1000000000000000
1000000000000000
1000000000000000
1000000000000000
1000000000000000
1000000000000000
1000000000000000
1000000000000000
1000000000000000
1000000000000000
1000000000000000
1000000000000000
1000000000000000
1000000000000000
1000000000000000
1000000000000000
1000000000000000
1000000000000000
1000000000000000
1000000000000000
1000000000000000
1000000000000000
1000000000000000
1000000000000000
1000000000000000
1000000000000000
1000000000000000
1000000000000000
1000000000000000
1000000000000000
1000000000000000
1000000000000000
1000000000000000
1000000000000000
1000000000000000
1000000000000000
1000000000000000
1000000000000000
1000000000000000
1000000000000000
1000000000000000
1000000000000000
1000000000000000
1000000000000000
1000000000000000
1000000000000000
1000000000000000
1000000000000000
1000000000000000
1000000000000000
1000000000000000
1000000000000000
1000000000000000
1000000000000000
1000000000000000
1000000000000000
1000000000000000
1000000000000000
1000000000000000
1000000000000000
1000000000000000
1000000000000000
1000000000000000
1000000000000000
1000000000000000
1000000000000000
1000000000000000
1000000000000000
1000000000000000
1000000000000000
1000000000000000
1000000000000000
1000000000000000
1000000000000000
1000000000000000
1000000000000000
1000000000000000
1000000000000000
1000000000000000
1000000000000000
1000000000000000
1000000000000000
1000000000000000
1000000000000000
1000000000000000
1000000000000000
1000000000000000
1000000000000000
1000000000000000
1000000000000000
1000000000000000
1000000000000000
1000000000000000
1000000000000000
1000000000000000
1000000000000000
1000000000000000
1000000000000000
1000000000000000
1000000000000000
1000000000000000
1000000000000000
1000000000000001
1000000000000001
1000000000000001
1000000000000001
1000000000000001
1000000000000010
1000000000000010
1000000000000011
1000000000000011
1000000000000100
1000000000000101
1000000000000110
1000000000000111
1000000000001001
1000000000001010
1000000000001101
1000000000001111
1000000000010011
1000000000010110
1000000000011011
1000000000100000
1000000000100111
1000000000101111
1000000000111000
1000000001000010
1000000001001111
1000000001011110
1000000001101111
1000000010000100
1000000010011100
1000000010111000
1000000011011001
1000000011111111
1000000100101100
1000000101100000
1000000110011011
1000000111100001
1000001000110000
1000001010001100
1000001011110110
1000001101110000
1000001111111011
1000010010011011
1000010101010001
1000011000100001
1000011100001101
1000100000001101
1000100010100110
1000100101010011
1000101000010111
1000101011110100
1000101111101101
1000110010000011
1000110100100001
1000110111010010
1000111010011000
1000111101110110
1001000000110111
1001000011000001
1001000101011011
1001001000000111
1001001011000101
1001001110011000
1001010001000001
1001010011000010
1001010101010000
1001010111101101
1001011010011010
1001011101010111
1001100000010100
1001100010000110
1001100100000011
1001100110001011
1001101000100000
1001101011000010
1001101101110011
1001110000011001
1001110010000010
1001110011110010
1001110101101100
1001110111110000
1001111001111111
1001111100011000
1001111110111101
1010000000110111
1010000010010111
1010000011111101
1010000101101010
1010000111011111
1010001001011100
1010001011100001
1010001101101111
1010010000000011
1010010001010011
1010010010101000
1010010100000010
1010010101100001
1010010111000101
1010011000101111
1010011010011111
1010011100010101
1010011110010000
1010100000001001
1010100001001101
1010100010010100
1010100011011110
1010100100101011
1010100101111100
1010100111010000
1010101000100111
1010101010000001
1010101011011111
1010101100111111
1010101110100011
1010110000000101
1010110000111010
1010110001110000
1010110010101000
1010110011100001
1010110100011011
1010110101010111
1010110110010011
1010110111010001
1010111000001111
1010111001001110
1010111010001101
1010111011001101
1010111100001101
1010111101001101
1010111110001101
1010111111001100
1011000000000110
1011000000100101
1011000001000011
1011000001100001
1011000001111110
1011000010011011
1011000010110110
1011000011010000
1011000011101000
1011000011111111
1011000100010101
1011000100101001
1011000100111010
1011000101001010
1011000101010111
1011000101100010
1011000101101010
1011000101101111
1011000101110001
1011000101110000
1011000101101011
1011000101100011
1011000101011000
1011000101001000
1011000100110100
1011000100011100
1011000100000000
1011000011011111
1011000010111001
1011000010001111
1011000001011111
1011000000101011
1010111111100010
1010111101100011
1010111011011010
1010111001000110
1010110110100110
1010110011111011
1010110001000100
1010101100000010
1010100101100110
1010011101100010
1010001110010010
0000000000000000
0010001111110010
0010100000010001
0010101000111101
0010110001000001
0010110101101111
0010111010101000
0010111111101110
0011000010011111
0011000101001101
0011001000000001
0011001010111010
0011001101111000
0011010000011110
0011010010000010
0011010011101001
0011010101010011
0011010110111110
0011011000101100
0011011010011100
0011011100001110
0011011110000011
0011011111111001
0011100000111001
0011100001110101
0011100010110011
0011100011110010
0011100100110001
0011100101110001
0011100110110010
0011100111110011
0011101000110101
0011101001111000
0011101010111011
0011101011111110
0011101101000010
0011101110000110
0011101111001011
0011110000001000
0011110000101010
0011110001001101
0011110001110000
0011110010010011
0011110010110110
0011110011011001
0011110011111100
0011110100011111
0011110101000010
0011110101100101
0011110110001000
0011110110101011
0011110111001110
0011110111110001
0011111000010011
0011111000110110
0011111001011001
0011111001111100
0011111010011110
0011111011000001
0011111011100011
0011111100000101
0011111100101000
0011111101001010
0011111101101100
0011111110001110
0011111110110000
0011111111010010
0011111111110011
0100000000001010
0100000000011011
0100000000101100
0100000000111100
0100000001001101
0100000001011101
0100000001101110
0100000001111110
0100000010001111
0100000010011111
0100000010101111
0100000011000000
0100000011010000
0100000011100000
0100000011110000
0100000100000000
0100000100010000
0100000100100000
0100000100110000
0100000101000000
0100000101010000
0100000101100000
0100000101110000
0100000110000000
0100000110010000
0100000110100000
0100000110101111
0100000110111111
0100000111001111
0100000111011111
0100000111101110
0100000111111110
0100001000001110
0100001000011101
0100001000101101
0100001000111101
0100001001001100
0100001001011100
0100001001101100
0100001001111011
0100001010001011
0100001010011010
0100001010101010
0100001010111010
0100001011001001
0100001011011001
0100001011101000
0100001011111000
0100001100000111
0100001100010111
0100001100100111
0100001100110110
0100001101000110
0100001101010101
0100001101100101
0100001101110100
0100001110000100
0100001110010011
0100001110100011
0100001110110010
0100001111000010
0100001111010001
0100001111100001
0100001111110000
0100010000000000
0100010000001000
0100010000010000
0100010000010111
0100010000011111
0100010000100111
0100010000101111
0100010000110110
0100010000111110
0100010001000110
0100010001001110
0100010001010101
0100010001011101
0100010001100101
0100010001101101
0100010001110100
0100010001111100
0100010010000100
0100010010001100
0100010010010011
0100010010011011
0100010010100011
0100010010101011
0100010010110010
0100010010111010
0100010011000010
0100010011001010
0100010011010001
0100010011011001
0100010011100001
0100010011101001
0100010011110000
0100010011111000
0100010100000000
0100010100001000
0100010100010000
0100010100010111
0100010100011111
0100010100100111
0100010100101111
0100010100110110
0100010100111110
0100010101000110
0100010101001110
0100010101010101
0100010101011101
0100010101100101
0100010101101101
0100010101110100
0100010101111100
0100010110000100
0100010110001100
0100010110010011
0100010110011011
0100010110100011
0100010110101011
0100010110110010
0100010110111010
0100010111000010
0100010111001010
0100010111010001
0100010111011001
0100010111100001
0100010111101001
0100010111110000
0100010111111000
0100011000000000
0100011000001000
0100011000010000
0100011000010111
0100011000011111
0100011000100111
0100011000101111
0100011000110110
0100011000111110
0100011001000110
0100011001001110
0100011001010101
0100011001011101
0100011001100101
0100011001101101
0100011001110100
0100011001111100
0100011010000100
0100011010001100
0100011010010011
0100011010011011
0100011010100011
0100011010101011
0100011010110010
0100011010111010
0100011011000010
0100011011001010
0100011011010001
0100011011011001
0100011011100001
0100011011101001
0100011011110000
0100011011111000
0100011100000000
0100011100001000
0100011100010000
0100011100010111
0100011100011111
0100011100100111
0100011100101111
0100011100110110
0100011100111110
0100011101000110
0100011101001110
0100011101010101
0100011101011101
0100011101100101
0100011101101101
0100011101110100
0100011101111100
0100011110000100
0100011110001100
0100011110010011
0100011110011011
0100011110100011
0100011110101011
0100011110110010
0100011110111010
0100011111000010
0100011111001010
0100011111010001
0100011111011001
0100011111100001
0100011111101001
0100011111110000
0100011111111000
0100100000000000
0100100000000100
0100100000001000
0100100000001100
0100100000010000
0100100000010011
0100100000010111
0100100000011011
0100100000011111
0100100000100011
0100100000100111
0100100000101011
0100100000101111
0100100000110010
0100100000110110
0100100000111010
0100100000111110
0100100001000010
0100100001000110
0100100001001010
0100100001001110
0100100001010001
0100100001010101
0100100001011001
0100100001011101
0100100001100001
0100100001100101
0100100001101001
0100100001101101
0100100001110000
0100100001110100
0100100001111000
0100100001111100
0100100010000000
0100100010000100
0100100010001000
0100100010001100
0100100010010000
0100100010010011
0100100010010111
0100100010011011
0100100010011111
0100100010100011
0100100010100111
0100100010101011
0100100010101111
0100100010110010
0100100010110110
0100100010111010
0100100010111110
0100100011000010
0100100011000110
0100100011001010
0100100011001110
0100100011010001
0100100011010101
0100100011011001
0100100011011101
0100100011100001
0100100011100101
0100100011101001
0100100011101101
0100100011110000
0100100011110100
0100100011111000
0100100011111100
0100100100000000
0100100100000100
0100100100001000
0100100100001100
0100100100010000
0100100100010011
0100100100010111
0100100100011011
0100100100011111
0100100100100011
0100100100100111
0100100100101011
0100100100101111
0100100100110010
0100100100110110
0100100100111010
0100100100111110
0100100101000010
0100100101000110
0100100101001010
0100100101001110
0100100101010001
0100100101010101
0100100101011001
0100100101011101
0100100101100001
0100100101100101
0100100101101001
0100100101101101
0100100101110000
0100100101110100
0100100101111000
0100100101111100
0100100110000000
0100100110000100
0100100110001000
0100100110001100
0100100110010000
0100100110010011
0100100110010111
0100100110011011
0100100110011111
0100100110100011
0100100110100111
0100100110101011
0100100110101111
0100100110110010
0100100110110110
0100100110111010
0100100110111110
0100100111000010
0100100111000110
0100100111001010
0100100111001110
0100100111010001
0100100111010101
0100100111011001
0100100111011101
0100100111100001
0100100111100101
0100100111101001
0100100111101101
0100100111110000
0100100111110100
0100100111111000
0100100111111100
0100101000000000
0100101000000100
0100101000001000
0100101000001100
0100101000010000
0100101000010011
0100101000010111
0100101000011011
0100101000011111
0100101000100011
0100101000100111
0100101000101011
0100101000101111
0100101000110010
0100101000110110
0100101000111010
0100101000111110
0100101001000010
0100101001000110
0100101001001010
0100101001001110
0100101001010001
0100101001010101
0100101001011001
0100101001011101
0100101001100001
0100101001100101
0100101001101001
0100101001101101
0100101001110000
0100101001110100
0100101001111000
0100101001111100
0100101010000000
0100101010000100
0100101010001000
0100101010001100
0100101010010000
0100101010010011
0100101010010111
0100101010011011
0100101010011111
0100101010100011
0100101010100111
0100101010101011
0100101010101111
0100101010110010
0100101010110110
0100101010111010
0100101010111110
0100101011000010
0100101011000110
0100101011001010
0100101011001110
0100101011010001
0100101011010101
0100101011011001
0100101011011101
0100101011100001
0100101011100101
0100101011101001
0100101011101101
0100101011110000
0100101011110100
0100101011111000
0100101011111100
0100101100000000
0100101100000100
0100101100001000
0100101100001100
0100101100010000
0100101100010011
0100101100010111
0100101100011011
0100101100011111
0100101100100011
0100101100100111
0100101100101011
0100101100101111
0100101100110010
0100101100110110
0100101100111010
0100101100111110
0100101101000010
0100101101000110
0100101101001010
0100101101001110
0100101101010001
0100101101010101
0100101101011001
0100101101011101
0100101101100001
0100101101100101
0100101101101001
0100101101101101
0100101101110000
0100101101110100
0100101101111000
0100101101111100
0100101110000000
