-0.0
-0.0
-0.0
-0.0
-0.0
-0.0
-0.0
-0.0
-0.0
-0.0
-0.0
-0.0
-0.0
-0.0
-0.0
-0.0
-0.0
-0.0
-0.0
-0.0
-0.0
-0.0
-0.0
-0.0
-0.0
-0.0
-0.0
-0.0
-0.0
-0.0
-0.0
-0.0
-0.0
-0.0
-0.0
-0.0
-0.0
-0.0
-0.0
-0.0
-0.0
-0.0
-0.0
-0.0
-0.0
-0.0
-0.0
-0.0
-0.0
-0.0
-0.0
-0.0
-0.0
-0.0
-0.0
-0.0
-0.0
-0.0
-0.0
-0.0
-0.0
-0.0
-0.0
-0.0
-0.0
-0.0
-0.0
-0.0
-0.0
-0.0
-0.0
-0.0
-0.0
-0.0
-0.0
-0.0
-0.0
-0.0
-0.0
-0.0
-0.0
-0.0
-0.0
-0.0
-0.0
-0.0
-0.0
-0.0
-0.0
-0.0
-0.0
-0.0
-0.0
-0.0
-0.0
-0.0
-0.0
-0.0
-0.0
-0.0
-0.0
-0.0
-0.0
-0.0
-0.0
-0.0
-0.0
-0.0
-0.0
-0.0
-0.0
-0.0
-0.0
-0.0
-0.0
-0.0
-0.0
-0.0
-0.0
-0.0
-0.0
-0.0
-0.0
-0.0
-0.0
-0.0
-0.0
-0.0
-0.0
-0.0
-0.0
-0.0
-0.0
-0.0
-0.0
-0.0
-0.0
-0.0
-0.0
-0.0
-0.0
-0.0
-0.0
-0.0
-0.0
-0.0
-0.0
-0.0
-0.0
-0.0
-0.0
-0.0
-0.0
-0.0
-0.0
-0.0
-0.0
-0.0
-0.0
-0.0
-0.0
-0.0
-0.0
-0.0
-0.0
-0.0
-0.0
-0.0
-0.0
-0.0
-0.0
-0.0
-0.0
-0.0
-0.0
-0.0
-0.0
-0.0
-0.0
-0.0
-0.0
-0.0
-0.0
-0.0
-0.0
-0.0
-0.0
-0.0
-0.0
-0.0
-0.0
-0.0
-0.0
-0.0
-0.0
-0.0
-0.0
-0.0
-0.0
-0.0
-0.0
-0.0
-0.0
-0.0
-0.0
-0.0
-0.0
-0.0
-0.0
-0.0
-0.0
-0.0
-0.0
-0.0
-0.0
-0.0
-0.0
-0.0
-0.0
-0.0
-0.0
-0.0
-0.0
-0.0
-0.0
-0.0
-0.0
-0.0
-0.0
-0.0
-0.0
-0.0
-0.0
-0.0
-0.0
-0.0
-0.0
-0.0
-0.0
-0.0
-0.0
-0.0
-0.0
-0.0
-0.0
-0.0
-0.0
-0.0
-0.0
-0.0
-0.0
-0.0
-0.0
-0.0
-0.0
-0.0
-0.0
-0.0
-0.0
-0.0
-0.0
-0.0
-0.0
-0.0
-0.0
-0.0
-0.0
-0.0
-0.0
-0.0
-0.0
-0.0
-0.0
-0.0
-0.0
-0.0
-0.0
-0.0
-0.0
-0.0
-0.0
-0.0
-0.0
-0.0
-0.0
-0.0
-0.0
-0.0
-0.0
-0.0
-0.0
-3.986709952063062e-16
-3.9698883910838925e-16
-3.953066830104724e-16
-7.872490538251109e-16
-1.1758271124439157e-15
-1.5610408588668866e-15
-2.3314683517128287e-15
-3.4820631226879905e-15
-4.622564957075652e-15
-6.903568625850972e-15
-9.54623585567843e-15
-1.3686022012651927e-14
-1.9302741223596473e-14
-2.7129813547203823e-14
-3.8262322603217894e-14
-5.377516613820758e-14
-7.546656902084606e-14
-1.0510111299784815e-13
-1.462516976211894e-13
-2.031573562576203e-13
-2.8143649027418344e-13
-3.887799173505548e-13
-5.352620703571589e-13
-7.358019917264204e-13
-1.0082540862816298e-12
-1.3783250635111526e-12
-1.8793804896171715e-12
-2.5561371201506104e-12
-3.4678926397191394e-12
-4.693054026202762e-12
-6.334917439106261e-12
-8.530038628302435e-12
-1.145737545242427e-11
-1.535125562022379e-11
-2.0518369831473195e-11
-2.7357957650139902e-11
-3.6388437717572615e-11
-4.828292647850889e-11
-6.39116301968987e-11
-8.43964897967453e-11
-1.1118190375092989e-10
-1.4612089316301535e-10
-1.9158689786151354e-10
-2.506101790735536e-10
-3.2705176445834247e-10
-4.2581824934793326e-10
-5.531292410630758e-10
-7.168512248447521e-10
-9.269071419495198e-10
-1.1957862713486659e-09
-1.5391671270847949e-09
-1.9766878840825216e-09
-2.5328850128403242e-09
-3.2383443939877593e-09
-4.131100779640335e-09
-5.258340614785103e-09
-6.678468850331315e-09
-8.463604362806234e-09
-1.0702595099727551e-08
-1.3504644806468364e-08
-1.7003666267929998e-08
-2.136349674941584e-08
-2.6784126263691654e-08
-3.35091191663104e-08
-4.183443833100939e-08
-5.2118904390927444e-08
-6.479657094216051e-08
-8.039132371580114e-08
-9.95340669211963e-08
-1.2298289849125993e-07
-1.5164674689551871e-07
-1.8661298503108376e-07
-2.2917961972623857e-07
-2.808927204705878e-07
-3.4358983584207675e-07
-4.194502333647194e-07
-5.110528951959763e-07
-6.21443303819891e-07
-7.542101683844958e-07
-9.135733541483628e-07
-1.1044844109785894e-06
-1.332741229154166e-06
-1.6051184941543652e-06
-1.9295157562456327e-06
-2.315125093799164e-06
-2.772620502239869e-06
-3.314371310257005e-06
-3.954682087611596e-06
-4.710061687458534e-06
-5.599524222703196e-06
-6.6449249581404785e-06
-7.871334250091612e-06
-9.30745283357752e-06
-1.0986071895354014e-05
-1.2944581515276587e-05
-1.5225531170652099e-05
-1.7877246107679163e-05
-2.095450345247563e-05
-2.4519271999038388e-05
-2.864151962285581e-05
-3.340009226019099e-05
-3.888366834499853e-05
-4.519179249295507e-05
-5.243599208697705e-05
-6.074098021842514e-05
-7.024594819227126e-05
-8.110595048732402e-05
-9.349338469421087e-05
-0.00010759956850246088
-0.00012363641530148953
-0.00014183820936257288
-0.00016246348090822392
-0.00018579698063319315
-0.00021215175240919102
-0.00024187130200825125
-0.0002753318586881945
-0.0003129447254257011
-0.0003551587124276087
-0.0004024626473451714
-0.00045538795431230504
-0.0005145112925755145
-0.0005804572440585333
-0.0006539010377185409
-0.0007355712970277666
-0.0008262527953282328
-0.0009267892022099024
-0.0010380858024145153
-0.0011611121671297367
-0.0012969047558733095
-0.0014465694255235589
-0.001611283821423998
-0.0017922996238877427
-0.001990944621875288
-0.002208624584124905
-0.0024468248965833434
-0.002707111933649767
-0.0029911341294997706
-0.003300622714631899
-0.0036373920817729943
-0.004003339744424622
-0.004400445850628059
-0.004830772213992094
-0.005296460823682922
-0.00579973179492272
-0.006342880721613875
-0.006928275392988188
-0.007558351836719015
-0.00823560965171489
-0.00896260659486239
-0.009741952387324853
-0.010576301707616224
-0.011468346340609193
-0.012420806453870965
-0.013436420975303507
-0.014517937048966515
-0.015668098549230826
-0.016889633637024285
-0.018185241345916505
-0.019557577190149944
-0.02100923779145681
-0.022542744526624144
-0.02416052620326249
-0.025864900777128066
-0.027658056130596412
-0.02954202993853104
-0.031518688654775945
-0.033589705659845724
-0.03575653861805139
-0.038020406100279514
-0.040382263536876614
-0.04284277857359491
-0.04540230591222494
-0.048060861726397994
-0.05081809775196735
-0.05367327516036829
-0.056625238332298475
-0.05967238865792246
-0.06281265849845705
-0.06604348545241023
-0.06936178707776375
-0.07276393622897807
-0.07624573717469145
-0.07980240266832682
-0.08342853214935526
-0.08711809125761881
-0.09086439284673484
-0.09466007968511841
-0.09849710903440838
-0.10236673929501544
-0.1062595189069657
-0.11016527769115982
-0.11407312081146789
-0.11797142553169856
-0.12184784093335821
-0.1256892907501786
-0.12948197946367657
-0.13321140179043844
-0.13686235567649147
-0.14041895889699693
-0.14386466934070943
-0.14718230903821083
-0.1503540919710222
-0.1533616556753896
-0.1561860966300492
-0.15880800939172324
-0.16120752941573172
-0.16336437947209437
-0.165257919540123
-0.16686720003696826
-0.1681710182081868
-0.1691479774813672
-0.1697765495574898
-0.17003513898925435
-0.16990214997136457
-0.16935605504497148
-0.16837546539739737
-0.16693920241913335
-0.1650263701631364
-0.16261642833686685
-0.1596892654454581
-0.15622527169508343
-0.1522054112590704
-0.14761129350575516
-0.14242524278649066
-0.13663036638470502
-0.13021062023244118
-0.12315087200936375
-0.11543696125079175
-0.10705575610575822
-0.09799520640339586
-0.08824439270586881
-0.07779357104857752
-0.06663421309315622
-0.05475904144579968
-0.04216205992234429
-0.02883857857221
-0.014785233305382676
0.0
0.015517796997647642
0.031767482033851525
0.04874703098674565
0.06645307976632142
0.08488093842199537
0.10402461076960527
0.12387681941534223
0.14442903602084634
0.16567151662151464
0.18759334177951234
0.21018246132396837
0.23342574340392214
0.2573090275546891
0.28181718145593465
0.3069341610396981
0.33264307358941403
0.35892624345643215
0.38576528000908844
0.4131411474207109
0.44103423589746915
0.46942443394450334
0.4982912012692704
0.5276136419247275
0.5573705773013621
0.5875406185865034
0.6181022383212992
0.649033840700453
0.6803138302766609
0.7119206787509107
0.7438329895507871
0.776029559921847
0.8084894402812371
0.8411919906082768
0.874116933672982
0.9072444049306729
0.9405549989380677
0.9740298121739103
1.007650482174443
1.0413992229211868
1.0752588564447196
1.1092128406338038
1.143245293263597
1.1773410122801262
1.2114854923999738
1.2456649381046647
1.279866273127927
1.3140771465512662
1.3482859356384875
1.3824817455534688
1.4166544061171071
1.4507944657694285
1.4848931829108434
1.5189425148029867
1.5529351042142814
1.5868642639983412
1.6207239597950078
1.6545087910437486
1.6882139704979942
1.721835302426379
1.7553691596833634
1.7888124598269253
1.8221626404555804
1.855417633930542
1.888575841641974
1.9216361079705708
1.954597694087775
1.9874602517294366
2.020223797069186
2.0528886848088104
2.08545558259407
2.1179254458553065
2.150299493163408
2.18257918218268
2.214766186293646
2.2468623719501455
2.278869776827042
2.310790588806708
2.3426271258449063
2.3743818167492448
2.406057182896509
2.4376558209084327
2.4691803862992536
2.500633578102549
2.5320181244792432
2.563336769303707
2.594592259719996
2.6257873346560205
2.656924714279343
2.6880070903748368
2.7190371176210117
2.7500174057390385
2.7809505124858007
2.811838937460206
2.842685116689925
2.873491417964196
2.904260136876918
2.934993493543313
2.9656936299525443
2.996362607918227
3.0270024075883994
3.0576149264765626
3.0882019789754405
3.118765296315538
3.1493065269310274
3.179827237196308
3.210328912497323
3.240812958602818
3.2712807033017497
3.3017333982744312
3.3321722211662026
3.3625982778339485
3.393012604737185
3.4234161714470974
3.453809883248429
3.4841945838107655
3.5145710579074567
3.544940034161971
3.5753021878032656
3.6056581434132604
3.636008477651209
3.666353721941242
3.6966943651110107
3.7270308559707184
3.7573636058233486
3.787692990898156
3.818019354700912
3.848343010275485
3.8786642423725772
3.908983309522408
3.939300446009247
3.9696158637464816
3.9999297540518075
4.030242289322813
4.060553624613975
4.090863899116597
4.121173237543776
4.151481751422892
4.181789540298561
4.2120966928492125
4.24240328792079
4.272709395481166
4.303015077499134
4.333320388751817
4.363625377564468
4.393930086486561
4.4242345529081755
4.454538809620499
4.484842885324262
4.515146805089828
4.545450590772459
4.575754261386268
4.606057833440103
4.636361321238542
4.666664737150911
4.696968091851205
4.727271394531498
4.757574653091346
4.787877874305435
4.818181063971652
4.848484227041544
4.878787367734984
4.909090489640677
4.9393935958041055
4.969696688804248
4.999999770820381
5.0303028436900465
5.060605908959316
5.090908967926191
5.121212021678054
5.1515150711238284
5.181818117021613
5.212121160002307
5.242424200589804
5.272727239218154
5.3030302762461785
5.333333311969839
5.363636346632697
5.393939380434749
5.42424241353983
5.454545446081853
5.484848478170016
5.515151509893175
5.545454541323446
5.575757572519233
5.6060606035277205
5.6363636343869485
5.666666665127501
5.696969695773912
5.727272726345819
5.757575756858906
5.787878787325659
5.8181818177560025
5.848484848157796
5.878787878537269
5.909090908899323
5.93939393924782
5.969696969585787
5.9999999999156035
6.03030303023912
6.060606060557779
6.090909090872701
6.121212121184763
6.151515151494634
6.181818181802832
6.212121212109754
6.242424242415712
6.272727272720939
6.303030303025611
6.333333333329867
6.363636363633807
6.393939393937515
6.424242424241048
6.454545454544449
6.484848484847749
6.51515151515098
6.545454545454158
6.575757575757296
6.606060606060402
6.636363636363491
6.666666666666563
6.6969696969696235
6.7272727272726724
6.75757575757572
6.787878787878761
6.818181818181801
6.848484848484834
6.87878787878787
6.909090909090903
6.939393939393937
6.969696969696966
6.999999999999997
7.030303030303029
7.0606060606060606
7.090909090909089
7.121212121212121
7.151515151515152
7.181818181818183
7.212121212121211
7.242424242424242
7.272727272727273
7.3030303030303045
7.333333333333336
7.363636363636363
7.3939393939393945
7.424242424242426
7.454545454545457
7.484848484848484
7.515151515151516
7.545454545454547
7.575757575757578
7.6060606060606055
7.636363636363637
7.666666666666668
7.696969696969699
7.727272727272727
7.757575757575758
7.787878787878789
7.81818181818182
7.848484848484848
7.878787878787879
7.90909090909091
7.939393939393941
7.969696969696969
8.0
8.030303030303031
8.060606060606062
8.09090909090909
8.121212121212121
8.151515151515152
8.181818181818183
8.212121212121211
8.242424242424242
8.272727272727273
8.303030303030305
8.333333333333336
8.363636363636363
8.393939393939394
8.424242424242426
8.454545454545457
8.484848484848484
8.515151515151516
8.545454545454547
8.575757575757578
8.606060606060606
8.636363636363637
8.666666666666668
8.696969696969699
8.727272727272727
8.757575757575758
8.787878787878789
8.81818181818182
8.848484848484848
8.878787878787879
8.90909090909091
8.939393939393941
8.969696969696969
9.0
9.030303030303031
9.060606060606062
9.09090909090909
9.121212121212121
9.151515151515152
9.181818181818183
9.212121212121211
9.242424242424242
9.272727272727273
9.303030303030305
9.333333333333336
9.363636363636363
9.393939393939394
9.424242424242426
9.454545454545457
9.484848484848484
9.515151515151516
9.545454545454547
9.575757575757578
9.606060606060606
9.636363636363637
9.666666666666668
9.696969696969699
9.727272727272727
9.757575757575758
9.787878787878789
9.81818181818182
9.848484848484848
9.878787878787879
9.90909090909091
9.939393939393941
9.969696969696969
10.0
10.030303030303031
10.060606060606062
10.09090909090909
10.121212121212121
10.151515151515152
10.181818181818183
10.212121212121215
10.242424242424242
10.272727272727273
10.303030303030305
10.333333333333336
10.363636363636363
10.393939393939394
10.424242424242426
10.454545454545457
10.484848484848484
10.515151515151516
10.545454545454547
10.575757575757578
10.606060606060606
10.636363636363637
10.666666666666668
10.696969696969699
10.727272727272727
10.757575757575758
10.787878787878789
10.81818181818182
10.848484848484848
10.878787878787879
10.90909090909091
10.939393939393941
10.969696969696969
11.0
11.030303030303031
11.060606060606062
11.09090909090909
11.121212121212121
11.151515151515152
11.181818181818183
11.212121212121215
11.242424242424242
11.272727272727273
11.303030303030305
11.333333333333336
11.363636363636363
11.393939393939394
11.424242424242426
11.454545454545457
11.484848484848484
11.515151515151516
11.545454545454547
11.575757575757578
11.606060606060606
11.636363636363637
11.666666666666668
11.696969696969699
11.727272727272727
11.757575757575758
11.787878787878789
11.81818181818182
11.848484848484848
11.878787878787879
11.90909090909091
11.939393939393941
11.969696969696969
12.0
12.030303030303031
12.060606060606062
12.09090909090909
12.121212121212121
12.151515151515152
12.181818181818183
12.212121212121215
12.242424242424242
12.272727272727273
12.303030303030305
12.333333333333336
12.363636363636363
12.393939393939394
12.424242424242426
12.454545454545457
12.484848484848484
12.515151515151516
12.545454545454547
12.575757575757578
12.606060606060606
12.636363636363637
12.666666666666668
12.696969696969699
12.727272727272727
12.757575757575758
12.787878787878789
12.81818181818182
12.848484848484848
12.878787878787879
12.90909090909091
12.939393939393941
12.969696969696969
13.0
13.030303030303031
13.060606060606062
13.090909090909093
13.121212121212121
13.151515151515152
13.181818181818183
13.212121212121215
13.242424242424242
13.272727272727273
13.303030303030305
13.333333333333336
13.363636363636363
13.393939393939394
13.424242424242426
13.454545454545457
13.484848484848484
13.515151515151516
13.545454545454547
13.575757575757578
13.606060606060606
13.636363636363637
13.666666666666668
13.696969696969699
13.727272727272727
13.757575757575758
13.787878787878789
13.81818181818182
13.848484848484848
13.878787878787879
13.90909090909091
13.939393939393941
13.969696969696969
14.0
14.030303030303031
14.060606060606062
14.090909090909093
14.121212121212121
14.151515151515152
14.181818181818183
14.212121212121215
14.242424242424242
14.272727272727273
14.303030303030305
14.333333333333336
14.363636363636363
14.393939393939394
14.424242424242426
14.454545454545457
14.484848484848484
14.515151515151516
14.545454545454547
14.575757575757578
14.606060606060606
14.636363636363637
14.666666666666668
14.696969696969699
14.727272727272727
14.757575757575758
14.787878787878789
14.81818181818182
14.848484848484848
14.878787878787879
14.90909090909091
14.939393939393941
14.969696969696969
15.0
