1.12535162055095e-07
1.1599751300354524e-07
1.1956638952531804e-07
1.2324506907413966e-07
1.270369299405328e-07
1.3094545435424156e-07
1.3497423168210477e-07
1.3912696172432076e-07
1.4340745811212347e-07
1.4781965180999817e-07
1.5236759472564435e-07
1.5705546343100963e-07
1.6188756299780322e-07
1.6686833095101986e-07
1.7200234134409604e-07
1.7729430895944987e-07
1.8274909363825284e-07
1.8837170474341914e-07
1.9416730575990122e-07
2.0014121903652622e-07
2.0629893067371748e-07
2.126460955616005e-07
2.191885425731087e-07
2.2593227991686917e-07
2.3288350065477335e-07
2.400485883893099e-07
2.4743412312587223e-07
2.550468873154351e-07
2.6289387208313746e-07
2.709822836485044e-07
2.7931954994319077e-07
2.879133274323348e-07
2.967715081457803e-07
3.059022269256247e-07
3.153138688967477e-07
3.2501507716718516e-07
3.350147607654167e-07
3.453221028218541e-07
3.559465690020449e-07
3.668979161993388e-07
3.7818620149499823e-07
3.8982179139397267e-07
4.0181537134483587e-07
4.1417795555260637e-07
4.269208970934853e-07
4.400558983407768e-07
4.535950217115888e-07
4.67550700744159e-07
4.819357515160029e-07
4.967633844133438e-07
5.120472162626593e-07
5.278012828354568e-07
5.440400517377902e-07
5.607784356963248e-07
5.780318062531799e-07
5.958160078820966e-07
6.141473725389225e-07
6.330427346597442e-07
6.525194466204743e-07
6.725953946720509e-07
6.932890153659249e-07
7.146193124848749e-07
7.366058744947392e-07
7.592688925330518e-07
7.826291789511311e-07
8.067081864266354e-07
8.315280276641321e-07
8.571114957017747e-07
8.834820848427416e-07
9.106640122306522e-07
9.386822400887665e-07
9.675624986433926e-07
9.97331309752563e-07
1.028016011261669e-06
1.0596447821083995e-06
1.0922466682000834e-06
1.125851609087138e-06
1.1604904654571773e-06
1.1961950474749672e-06
1.2329981439943098e-06
1.2709335526686206e-06
1.3100361109879088e-06
1.3503417282705954e-06
1.391887418639613e-06
1.4347113350129966e-06
1.4788528041402494e-06
1.5243523627165775e-06
1.5712517946082374e-06
1.6195941692230914e-06
1.6694238810616754e-06
1.7207866904850611e-06
1.7737297657369432e-06
1.8283017262585348e-06
1.8845526873360723e-06
1.9425343061218975e-06
2.00229982907137e-06
2.06390414083917e-06
2.127403814679906e-06
2.192857164399292e-06
2.2603242979035746e-06
2.3298671723963884e-06
2.4015496512737467e-06
2.4754375627693746e-06
2.5515987604042295e-06
2.6301031852957077e-06
2.7110229303837774e-06
2.7944323066329873e-06
2.880407911271078e-06
2.969028698126972e-06
3.0603760501325574e-06
3.154533854055006e-06
3.2515885775280525e-06
3.351629348453139e-06
3.454748036843142e-06
3.5610393391839967e-06
3.6706008653914827e-06
3.783533228443199e-06
3.899940136767801e-06
4.019928489476538e-06
4.143608474524291e-06
4.271093669890441e-06
4.402501147872246e-06
4.537951582586632e-06
4.677569360779002e-06
4.821482696040785e-06
4.969823746540549e-06
5.122728736376828e-06
5.280338080664014e-06
5.4427965144660685e-06
5.610253225696478e-06
5.782861992106439e-06
5.960781322487e-06
6.144174602214718e-06
6.3332102432744435e-06
6.528061838896988e-06
6.728908322953548e-06
6.935934134253148e-06
7.149329385893906e-06
7.369290039823625e-06
7.5960180867698474e-06
7.829721731704451e-06
8.070615585013032e-06
8.318920859544575e-06
8.574865573722174e-06
8.838684760901125e-06
9.11062068516658e-06
9.390923063768806e-06
9.67984929640007e-06
9.977664701523608e-06
1.0284642759971402e-05
1.0601065366034336e-05
1.0927223086275141e-05
1.126341542630157e-05
1.1609951105744416e-05
1.1967148341692729e-05
1.2335335140846325e-05
1.2714849600653524e-05
1.3106040219710244e-05
1.350926621770526e-05
1.3924897865205198e-05
1.4353316823581648e-05
1.4794916495392061e-05
1.525010238553588e-05
1.5719292473517237e-05
1.6202917597155453e-05
1.670142184809518e-05
1.7215262979478882e-05
1.774491282615562e-05
1.8290857737811356e-05
1.8853599025417662e-05
1.9433653421408373e-05
2.0031553554006095e-05
2.06478484361333e-05
2.1283103969356076e-05
2.1937903463322442e-05
2.2612848171171616e-05
2.3308557841404794e-05
2.4025671286722665e-05
2.4764846970352077e-05
2.5526763610397766e-05
2.6312120802774e-05
2.7121639663286393e-05
2.795606348945195e-05
2.8816158442663808e-05
2.9702714251325685e-05
3.061654493559993e-05
3.155848955443265e-05
3.2529412975540226e-05
3.353020666906254e-05
3.456178952560931e-05
3.562510869944829e-05
3.6721140477607394e-05
3.7850891175686555e-05
3.9015398061198876e-05
4.021573030528604e-05
4.1452989963678716e-05
4.27283129878002e-05
4.4042870266937686e-05
4.5397868702434395e-05
4.6794552314885226e-05
4.823420338534883e-05
4.971814363161933e-05
5.124773542063277e-05
5.282438301811693e-05
5.4449533876627104e-05
5.6124679963144546e-05
5.7851359127450406e-05
5.963115651252562e-05
6.146570600826537e-05
6.335669174983583e-05
6.530584966204004e-05
6.731496905110554e-05
6.938589424534378e-05
7.152052628618113e-05
7.372082467110367e-05
7.598880915010512e-05
7.832656157727728e-05
8.073622781923172e-05
8.322001972209245e-05
8.5780217138852e-05
8.841917001893859e-05
9.113930056189941e-05
9.394310543716069e-05
9.68331580718857e-05
9.98121110090139e-05
0.00010288269833762827
0.0001060477381978617
0.00010931013536262017
0.00011267288389847128
0.0001161390699081178
0.00011971187435694831
0.00012339457598623172
0.00012719055431560273
0.0001311032927375645
0.00013513638170681722
0.00013929352202730422
0.00014357852823995856
0.0001479953321142214
0.00015254798624649623
0.00015724066776879683
0.0001620776821709485
0.00016706346723980258
0.000172202597119026
0.0001774997864931391
0.0001829598948995803
0.0001885879311726946
0.00019438905802365955
0.0002003685967604801
0.00020653203215230867
0.00021288501744247558
0.00021943337951474816
0.0002261831242174684
0.00023314044185035804
0.0002403117128189267
0.0002477035134615655
0.0002553226220545578
0.00026317602500039444
0.00027127092320494353
0.0002796147386491923
0.00028821512116144235
0.0002970799553960169
0.0003062173680247188
0.00031563573514746556
0.00032534368992871373
0.0003353501304664781
0.0003456642279009575
0.0003562954347699869
0.0003672534936187418
0.0003785484458713356
0.0003901906409721962
0.00040219074580530453
0.0004145597543996538
0.00042730899792949105
0.0004404501550181947
0.00045399526235485524
0.0004679567256329358
0.0004823473308206107
0.0004971802557727145
0.0005124690821944584
0.0005282278079674279
0.0005444708598486149
0.0005612131065536061
0.0005784698722353092
0.0005962569503699821
0.0006145906180626042
0.000633487650784035
0.0006529653375526918
0.0006730414965739019
0.0006937344913503945
0.0007150632472778347
0.0007370472687396309
0.0007597066567156999
0.0007830621269202472
0.0008071350284840316
0.0008319473631970591
0.0008575218053280132
0.0008838817220372611
0.0009110511944006454
0.0009390550390618314
0.0009679188305313634
0.000997668924151172
0.0010283324797436726
0.001059937485965213
0.0010925127853840398
0.0011260881003036034
0.0011606940593524397
0.0011963622248625531
0.0012331251210586601
0.0012710162630813592
0.0013100701868677496
0.0013503224799137545
0.0013918098129428744
0.001434569972506858
0.0014786418945442624
0.001524065698923666
0.001570882724998787
0.0016191355682035865
0.0016688681177159336
0.0017201255952192596
0.001772954594792141
0.0018274031239566193
0.0018835206459165894
0.0019413581230184613
0.002000968061466912
0.002062404557329245
0.002125723343862747
0.0021909818401999273
0.0022582392014275227
0.002327556370095604
0.0023989961291941333
0.0024726231566347743
0.0025485040812767653
0.0026267075405361088
0.0027073042396183362
0.0027903670124155306
0.0028759708841092873
0.0029641931355216854
0.0030551133692573265
0.0031488135776798513
0.003245378212767304
0.003344894257891008
0.0034474513015635665
0.0035531416132018024
0.0036620602209513683
0.0037743049916198934
0.0038899767127663597
0.004009179176994465
0.004132019268498481
0.004258607051910032
0.004389055863494932
0.00452348240474894
0.004662006838441928
0.004804752887159523
0.004951847934391681
0.005103423128217311
0.0052596134876337925
0.005420558011580262
0.005586399790702615
0.00575728612190819
0.005933368625756816
0.0061148033667347305
0.006301750976456232
0.0064943767798374815
0.0066928509242848554
0.006897348511939483
0.0071080497350171435
0.00732514001428157
0.007548810140686255
0.0077792564202182925
0.00801668082197431
0.008261291129496423
0.008513301095392138
0.008772930599259385
0.009040405808933128
0.009315959345066693
0.009599830449055373
0.009892265154305866
0.010193516460848633
0.010503844513285425
0.010823516782056805
0.011152808248008742
0.01149200159022879
0.01184138737711565
0.012201264260636075
0.01257193917371529
0.012953727530695883
0.013346953430790894
0.013751949864444836
0.014169058922504333
0.014598632008088232
0.015041030051032
0.015496623724768335
0.01596579366548898
0.016448930693417976
0.016946436036007675
0.017458721552852153
0.01798620996209156
0.018529335068062164
0.019088541989923387
0.019664287390972077
0.020257039708328334
0.020867279382653724
0.021495499087533926
0.022142203958132146
0.022807911818687677
0.023493153408405652
0.024198472605249228
0.02492442664711405
0.02567158634982702
0.02644053632137711
0.02723187517174484
0.028046215717659743
0.028884185181570758
0.029746425384074217
0.03063359292899631
0.03154635938028368
0.03248541142980472
0.03345145105511818
0.034445195666211216
0.035467378240160094
0.03651874744261104
0.03760006773492379
0.03871211946576642
0.039855698945889695
0.04103161850475471
0.04224070652762502
0.043483807471679035
0.044761781859634225
0.04607550624931946
0.04742587317756678
0.04881379107673926
0.05024018416214772
0.051705992288555776
0.05321217077391106
0.05475969018839042
0.0563495361067887
0.057982708822235954
0.059660223019174806
0.061383107403492225
0.06315240428765426
0.0649691691286641
0.06683447001662834
0.06874938711169996
0.07071501202714364
0.07273244715626795
0.07480280494096167
0.07692720707958853
0.07910678367200667
0.08134267229951792
0.08363601703758668
0.08598796739923162
0.08839967720705852
0.09087230339198726
0.09340700471683225
0.09600494042300453
0.09866726879874976
0.10139514566748078
0.10418972279494813
0.10705214621417715
0.10998355446732745
0.11298507676386015
0.11605783105467012
0.11920292202211755
0.12242143898621316
0.125714453727536
0.12908301822783447
0.13252816232963247
0.1360508913165867
0.13965218341676008
0.14333298723144836
0.1470942190926644
0.1509367603529002
0.15486145461129774
0.15886910488091524
0.16296047070232164
0.16713626520934136
0.1713971521533434
0.17574374289308015
0.18017659335766972
0.18469620099093448
0.18930300168589828
0.19399736671885592
0.19877959969300713
0.2036499335022193
0.20860852732604515
0.21365546366762914
0.2187907454466515
0.22401429315989183
0.2293259421224284
0.23472543980283023
0.24021244326602434
0.24578651673774468
0.2514471293046628
0.2571936527643822
0.2630253596395176
0.2689414213699951
0.27494090669757626
0.28102278025633637
0.28718590138250283
0.29342902315658703
0.29975079169021424
0.30614974566937303
0.31262431616506875
0.31917282672147035
0.3257934937306941
0.332484427102269
0.33924363123418294
0.346069006291123
0.35295834979419605
0.3599093585249657
0.3669196307451676
0.3739866687318766
0.3811078816263186
0.388280588592839
0.39550202228288817
0.4027693325971749
0.4100795907374461
0.4174297935376856
0.42481686806284763
0.43223767646165673
0.439689021058422
0.44716764966735856
0.45467026111147996
0.46219351092684924
0.46973401723175856
0.4772883667393611
0.48485312089131455
0.49242482208922417
0.5
0.5075751779107762
0.515146879108686
0.5227116332606389
0.5302659827682414
0.5378064890731512
0.5453297388885205
0.5528323503326414
0.560310978941578
0.5677623235383437
0.5751831319371528
0.5825702064623144
0.5899204092625538
0.5972306674028255
0.6044979777171123
0.6117194114071611
0.6188921183736814
0.6260133312681234
0.6330803692548328
0.6400906414750347
0.6470416502058041
0.653930993708877
0.6607563687658174
0.6675155728977314
0.6742065062693059
0.6808271732785297
0.6873756838349316
0.6938502543306273
0.7002492083097858
0.706570976843413
0.7128140986174976
0.7189772197436639
0.7250590933024238
0.7310585786300049
0.7369746403604828
0.7428063472356181
0.7485528706953372
0.7542134832622553
0.759787556733976
0.7652745601971701
0.7706740578775716
0.7759857068401083
0.7812092545533488
0.7863445363323712
0.7913914726739548
0.7963500664977807
0.8012204003069932
0.8060026332811443
0.8106969983141018
0.8153037990090656
0.8198234066423302
0.8242562571069201
0.8286028478466569
0.8328637347906587
0.8370395292976784
0.841130895119085
0.8451385453887026
0.8490632396470997
0.8529057809073356
0.8566670127685518
0.8603478165832401
0.8639491086834133
0.8674718376703675
0.8709169817721658
0.8742855462724642
0.877578561013787
0.8807970779778823
0.8839421689453301
0.88701492323614
0.8900164455326726
0.8929478537858229
0.895810277205052
0.8986048543325194
0.9013327312012502
0.9039950595769954
0.9065929952831678
0.9091276966080128
0.9116003227929415
0.9140120326007685
0.9163639829624134
0.9186573277004821
0.9208932163279935
0.9230727929204114
0.9251971950590383
0.9272675528437322
0.9292849879728564
0.9312506128883
0.9331655299833717
0.935030830871336
0.9368475957123458
0.9386168925965077
0.940339776980825
0.9420172911777641
0.9436504638932114
0.9452403098116096
0.946787829226089
0.9482940077114443
0.9497598158378524
0.9511862089232608
0.9525741268224334
0.9539244937506807
0.9552382181403658
0.9565161925283209
0.9577592934723749
0.9589683814952454
0.9601443010541104
0.9612878805342336
0.9623999322650761
0.9634812525573891
0.9645326217598399
0.9655548043337887
0.9665485489448817
0.9675145885701952
0.9684536406197164
0.9693664070710037
0.9702535746159258
0.9711158148184292
0.9719537842823404
0.9727681248282553
0.973559463678623
0.9743284136501731
0.975075573352886
0.9758015273947509
0.9765068465915943
0.9771920881813124
0.977857796041868
0.9785045009124661
0.9791327206173464
0.9797429602916716
0.980335712609028
0.9809114580100767
0.9814706649319378
0.9820137900379085
0.9825412784471479
0.9830535639639925
0.9835510693065821
0.984034206334511
0.9845033762752317
0.984958969948968
0.9854013679919118
0.9858309410774957
0.9862480501355552
0.9866530465692092
0.9870462724693041
0.9874280608262846
0.9877987357393639
0.9881586126228844
0.9885079984097713
0.9888471917519913
0.9891764832179432
0.9894961554867145
0.9898064835391513
0.9901077348456941
0.9904001695509447
0.9906840406549333
0.9909595941910669
0.9912270694007407
0.9914866989046078
0.9917387088705035
0.9919833191780258
0.9922207435797817
0.9924511898593137
0.9926748599857185
0.9928919502649828
0.9931026514880604
0.9933071490757153
0.9935056232201624
0.9936982490235438
0.9938851966332654
0.9940666313742431
0.9942427138780918
0.9944136002092974
0.9945794419884196
0.9947403865123661
0.9948965768717827
0.9950481520656084
0.9951952471128405
0.9953379931615581
0.995476517595251
0.9956109441365052
0.9957413929480899
0.9958679807315014
0.9959908208230056
0.9961100232872336
0.9962256950083802
0.9963379397790485
0.9964468583867983
0.9965525486984363
0.996655105742109
0.9967546217872328
0.9968511864223202
0.9969448866307425
0.9970358068644785
0.9971240291158906
0.9972096329875845
0.9972926957603816
0.9973732924594639
0.9974514959187232
0.9975273768433653
0.9976010038708057
0.9976724436299043
0.9977417607985725
0.9978090181598
0.9978742766561374
0.9979375954426708
0.9979990319385331
0.9980586418769815
0.9981164793540833
0.9981725968760434
0.9982270454052078
0.9982798744047808
0.9983311318822841
0.9983808644317964
0.9984291172750013
0.9984759343010764
0.9985213581054557
0.9985654300274931
0.9986081901870572
0.9986496775200862
0.9986899298131323
0.9987289837369187
0.9987668748789413
0.9988036377751376
0.9988393059406476
0.9988739118996964
0.998907487214616
0.9989400625140347
0.9989716675202562
0.9990023310758488
0.9990320811694685
0.9990609449609381
0.9990889488055994
0.9991161182779628
0.999142478194672
0.999168052636803
0.999192864971516
0.9992169378730799
0.9992402933432843
0.9992629527312603
0.9992849367527222
0.9993062655086495
0.999326958503426
0.9993470346624472
0.9993665123492159
0.9993854093819373
0.99940374304963
0.9994215301277646
0.9994387868934465
0.9994555291401515
0.9994717721920326
0.9994875309178055
0.9995028197442274
0.9995176526691794
0.9995320432743672
0.9995460047376451
0.9995595498449819
0.9995726910020706
0.9995854402456005
0.9995978092541947
0.9996098093590279
0.9996214515541286
0.9996327465063812
0.99964370456523
0.999654335772099
0.9996646498695336
0.9996746563100712
0.9996843642648524
0.9996937826319753
0.9997029200446039
0.9997117848788385
0.9997203852613508
0.999728729076795
0.9997368239749997
0.9997446773779455
0.9997522964865385
0.9997596882871811
0.9997668595581497
0.9997738168757825
0.9997805666204853
0.9997871149825575
0.9997934679678477
0.9997996314032395
0.9998056109419764
0.9998114120688274
0.9998170401051004
0.9998225002135069
0.9998277974028811
0.9998329365327602
0.9998379223178291
0.9998427593322312
0.9998474520137535
0.9998520046678859
0.9998564214717601
0.9998607064779726
0.9998648636182932
0.9998688967072623
0.9998728094456845
0.9998766054240137
0.999880288125643
0.9998838609300919
0.9998873271161015
0.9998906898646375
0.9998939522618022
0.9998971173016623
0.9999001878889909
0.9999031668419281
0.9999060568945628
0.9999088606994382
0.9999115808299811
0.9999142197828611
0.999916779980278
0.9999192637721808
0.9999216734384228
0.99992401119085
0.9999262791753288
0.9999284794737138
0.9999306141057547
0.9999326850309488
0.9999346941503381
0.9999366433082503
0.9999385342939917
0.9999403688434875
0.9999421486408726
0.9999438753200368
0.9999455504661234
0.999947175616982
0.9999487522645792
0.9999502818563685
0.9999517657966146
0.9999532054476851
0.9999546021312976
0.999955957129733
0.9999572716870121
0.9999585470100363
0.9999597842696948
0.9999609846019387
0.9999621491088242
0.9999632788595224
0.9999643748913005
0.9999654382104745
0.9999664697933308
0.9999674705870245
0.9999684415104456
0.9999693834550645
0.9999702972857486
0.9999711838415573
0.9999720439365106
0.9999728783603367
0.9999736878791972
0.9999744732363895
0.9999752351530297
0.9999759743287133
0.9999766914421585
0.9999773871518289
0.9999780620965366
0.9999787168960307
0.9999793521515637
0.999979968446446
0.9999805663465785
0.9999811464009746
0.9999817091422621
0.9999822550871739
0.9999827847370205
0.999983298578152
0.9999837970824029
0.9999842807075264
0.9999847498976145
0.9999852050835046
0.9999856466831764
0.9999860751021347
0.9999864907337824
0.9999868939597801
0.9999872851503994
0.9999876646648592
0.9999880328516584
0.9999883900488943
0.9999887365845738
0.9999890727769137
0.9999893989346339
0.9999897153572399
0.9999900223352984
0.9999903201507037
0.9999906090769363
0.9999908893793149
0.999991161315239
0.9999914251344262
0.9999916810791404
0.999991929384415
0.9999921702782683
0.9999924039819134
0.99999263070996
0.999992850670614
0.9999930640658659
0.9999932710916771
0.9999934719381611
0.9999936667897568
0.9999938558253978
0.9999940392186775
0.9999942171380078
0.9999943897467743
0.9999945572034855
0.9999947196619194
0.9999948772712636
0.9999950301762534
0.9999951785173039
0.9999953224306392
0.9999954620484175
0.9999955974988521
0.9999957289063302
0.9999958563915254
0.9999959800715105
0.9999961000598632
0.9999962164667715
0.9999963293991346
0.9999964389606609
0.9999965452519632
0.9999966483706515
0.9999967484114225
0.9999968454661461
0.99999693962395
0.999997030971302
0.9999971195920888
0.9999972055676933
0.9999972889770696
0.9999973698968146
0.9999974484012396
0.9999975245624373
0.9999975984503487
0.9999976701328277
0.999997739675702
0.9999978071428355
0.9999978725961852
0.9999979360958591
0.999997997700171
0.9999980574656939
0.9999981154473127
0.9999981716982738
0.9999982262702343
0.9999982792133094
0.999998330576119
0.9999983804058309
0.9999984287482054
0.9999984756476372
0.9999985211471959
0.9999985652886649
0.9999986081125813
0.9999986496582718
0.9999986899638891
0.9999987290664473
0.999998767001856
0.9999988038049525
0.9999988395095345
0.9999988741483908
0.9999989077533318
0.9999989403552179
0.9999989719839887
0.9999990026686901
0.9999990324375012
0.9999990613177598
0.9999990893359878
0.9999991165179152
0.9999991428885043
0.9999991684719722
0.9999991932918135
0.9999992173708211
0.9999992407311075
0.9999992633941256
0.9999992853806876
0.9999993067109846
0.9999993274046054
0.9999993474805534
0.9999993669572653
0.9999993858526274
0.9999994041839921
0.9999994219681937
0.9999994392215644
0.9999994559599483
0.9999994721987172
0.9999994879527838
0.9999995032366157
0.9999995180642485
0.9999995324492993
0.9999995464049783
0.9999995599441016
0.9999995730791029
0.9999995858220444
0.9999995981846286
0.9999996101782086
0.9999996218137985
0.9999996331020837
0.999999644053431
0.9999996546778971
0.9999996649852393
0.9999996749849228
0.9999996846861312
0.999999694097773
